2024-03-15 17:00:28.645706: I tensorflow/core/util/port.cc:113] oneDNN custom operations are on. You may see slightly different numerical results due to floating-point round-off errors from different computation orders. To turn them off, set the environment variable `TF_ENABLE_ONEDNN_OPTS=0`.
2024-03-15 17:00:32.293290: I tensorflow/core/util/port.cc:113] oneDNN custom operations are on. You may see slightly different numerical results due to floating-point round-off errors from different computation orders. To turn them off, set the environment variable `TF_ENABLE_ONEDNN_OPTS=0`.
2024-03-15 17:00:41.308459: I tensorflow/core/platform/cpu_feature_guard.cc:210] This TensorFlow binary is optimized to use available CPU instructions in performance-critical operations.
To enable the following instructions: AVX2 FMA, in other operations, rebuild TensorFlow with the appropriate compiler flags.
    
    
-------------------------------
participant:  1
-------------------------------
    
    
participant:  1
corriendo en PC gamer:
Window size (sec):  11.0
step (sec):  8.25
overlap:  True
perc. of overlap:  25.0
overlap duration (sec):  2.75
Nearest multiple of 16 to 11000 is: 11008
Nearest multiple of 16 to 8250 is: 8256
['gsr_chunks', 'ppg_chunks', 'val_chunks', 'aro_chunks', 'time_chunks', 'tag_chunks', 'video']
C:\Users\Javier\Dropbox\c_sldl_1_2_12\functions.py:880: FutureWarning: ChainedAssignmentError: behaviour will change in pandas 3.0!

[1m1/1[0m [32m━━━━━━━━━━━━━━━━━━━━[0m[37m[0m [1m0s[0m 125ms/step
predicted [0.29275095 0.8435572  0.948343   0.9601309  0.6353444  0.9583093
 0.9562978  0.05565878 0.7184957  0.86562407 0.9007939  0.7849443
 0.94359946 0.79382956 0.7871053  0.8597529  0.9279232  0.53990066
 0.9345708  0.8767598  0.80851614 0.8820959  0.40007284 0.01832549
 0.53466034 0.9138359  0.8163884  0.85194427 0.65211457 0.76996315]
predicted [0 1 1 1 1 1 1 0 1 1 1 1 1 1 1 1 1 1 1 1 1 1 0 0 1 1 1 1 1 1]
expected [ True  True  True  True  True  True  True False  True False  True  True
 False False  True  True False  True False False  True False False False
  True  True False  True  True  True]
accuracy: 0.7
confusion matrix: 
[[ 3  8]
 [ 1 18]]
              precision    recall  f1-score   support

       False       0.75      0.27      0.40        11
        True       0.69      0.95      0.80        19

    accuracy                           0.70        30
   macro avg       0.72      0.61      0.60        30
weighted avg       0.71      0.70      0.65        30

macro avg f1-score: 0.6000000000000001
macro avg (UAR): 0.6100478468899522
Sensitivity:  0.2727272727272727
Specificity:  0.9473684210526315
g-mean:  0.5083042452524145
-------- Model Performance ----------: 
accuracy:  [0.66666667 0.63333333 0.63333333 0.7        0.63333333 0.66666667
 0.66666667 0.7        0.73333333 0.7       ]
gmean:  [0.5990423  0.47923384 0.57872984 0.65621796 0.47923384 0.67773899
 0.63396678 0.61868822 0.67773899 0.50830425]
f1_score:  [0.625      0.54856361 0.5970696  0.67032967 0.54856361 0.66063348
 0.64114833 0.6534018  0.7        0.6       ]
UAR:  [0.62200957 0.55741627 0.59569378 0.66746411 0.55741627 0.67942584
 0.64114833 0.64832536 0.6937799  0.61004785]
Cohen Kappa score:  [0.25373134 0.12698413 0.19512195 0.34146341 0.12698413 0.33333333
 0.28229665 0.31472081 0.40298507 0.25414365]
arousal and valece = ok
------------- Evaluating model --------------
-------------------------------------
-------------------------------------
participant:  30
-------------------------------------
----- RESULTS ------
-------------------------------------
Window size (sec):  11.008
step (sec):  8.256
overlap:  True
perc. of overlap:  25.0
overlap duration (sec):  2.752
Number of windows / instances:  149
-rows: alg : KNN = 0; DT = 1; RF = 2; SVM = 3; GBM = 4; BDDAE = 5; DUMMY = 5
columns:
'val_cohen','val_uar', 'val_acc', 'val_gm',  'val_f1',  'aro_cohen','aro_uar', 'aro_acc', 'aro_gm',  'aro_f1'
-------------------------------------------------------------
  v_c   v_u   v_a   v_g   v_f1  a_c   a_u   a_a   a_g   a_f1
[[0.796 0.902 0.9   0.897 0.896 0.37  0.687 0.718 0.665 0.681]
 [0.702 0.837 0.845 0.834 0.832 0.493 0.755 0.779 0.696 0.749]
 [0.695 0.847 0.865 0.796 0.848 0.449 0.74  0.772 0.745 0.732]
 [0.509 0.736 0.792 0.685 0.741 0.174 0.574 0.684 0.348 0.534]
 [0.662 0.856 0.872 0.836 0.86  0.437 0.701 0.779 0.604 0.698]
 [0.263 0.627 0.673 0.591 0.624 0.058 0.525 0.607 0.411 0.504]
 [0.    0.5   0.624 0.    0.384 0.    0.5   0.644 0.    0.392]]
participant performance loaded
    
    
-------------------------------
LAST participant's saved data: 
30
-------------------------------
    
    
---------------------------
KNN performance:
[[0.55589115 0.77797619 0.77857143 0.77508408 0.77687888 0.36417564
  0.68106061 0.79857143 0.52543607 0.66540717]
 [0.42874519 0.71785714 0.71285714 0.70704659 0.70836314 0.36112889
  0.67555556 0.7047619  0.65370572 0.67563776]
 [0.48973012 0.74007937 0.76380952 0.68779297 0.73595513 0.53003583
  0.76607143 0.7647619  0.75412589 0.75999192]
 [0.39978939 0.69821429 0.70428571 0.68602724 0.69612512 0.27552149
  0.63886364 0.71142857 0.57948309 0.6347114 ]
 [0.5213952  0.75444444 0.78571429 0.73287572 0.75664929 0.54052862
  0.76875    0.77285714 0.75074629 0.76293139]
 [0.55727419 0.77946429 0.77904762 0.77444368 0.77686508 0.63774835
  0.81875    0.81857143 0.81109749 0.81533676]
 [0.39927499 0.69097222 0.7252381  0.64367418 0.68465078 0.2338794
  0.61696429 0.61761905 0.60625083 0.61165847]
 [0.84482377 0.90795455 0.93952381 0.89981035 0.9216709  0.67105364
  0.84611111 0.83904762 0.83668296 0.83202447]
 [0.38365227 0.67886364 0.7652381  0.59118077 0.67732449 0.2432924
  0.60954545 0.69190476 0.53091394 0.60871647]
 [0.36632293 0.68482143 0.68380952 0.67299642 0.67816538 0.35273965
  0.67678571 0.67761905 0.67179929 0.67452776]
 [0.19566092 0.59305556 0.62238095 0.55633021 0.58728387 0.38871553
  0.69222222 0.71809524 0.66578485 0.68814597]
 [0.60447509 0.79611111 0.81904762 0.7734243  0.79608516 0.52931919
  0.76055556 0.77904762 0.7343397  0.75577049]
 [0.37915714 0.68422619 0.71190476 0.65258766 0.68112397 0.22341841
  0.60753968 0.63619048 0.56687471 0.60097414]
 [0.19222611 0.58722222 0.64380952 0.54019838 0.58636082 0.35149736
  0.675      0.67761905 0.64910567 0.6635756 ]
 [0.25619883 0.62045455 0.69142857 0.57974575 0.62515575 0.18385312
  0.59277778 0.62285714 0.53601605 0.58291154]
 [0.25001664 0.62277778 0.65142857 0.59293154 0.61785352 0.47566735
  0.725      0.77809524 0.68854659 0.72941504]
 [0.47435897 0.73640873 0.75190476 0.71964213 0.73284511 0.51042971
  0.75099206 0.77190476 0.72937557 0.74969311]
 [0.02437089 0.51762821 0.82571429 0.11774899 0.48738217 0.48752243
  0.74761905 0.75095238 0.73167464 0.73850004]
 [0.40463332 0.69909091 0.75190476 0.67388066 0.69790378 0.33382128
  0.6655754  0.67095238 0.64974104 0.65911769]
 [0.3225873  0.65444444 0.71761905 0.5978557  0.64888512 0.27047194
  0.63111111 0.67761905 0.57965695 0.62425599]
 [0.12812147 0.5530303  0.72619048 0.36058763 0.55924224 0.05619236
  0.52678571 0.5247619  0.50480501 0.51476888]
 [0.26715525 0.63571429 0.63       0.60643282 0.61819737 0.35988322
  0.66833333 0.72428571 0.62784706 0.67219396]
 [0.10664825 0.55545635 0.57095238 0.52614104 0.54562068 0.27908342
  0.62159091 0.7647619  0.51008383 0.62892462]
 [0.22410044 0.61339286 0.61714286 0.58555675 0.60199579 0.5681417
  0.78085317 0.79142857 0.77359707 0.78253852]
 [0.50010279 0.74861111 0.75904762 0.74146223 0.74883732 0.60043785
  0.80267857 0.79952381 0.794186   0.79699409]
 [0.26712221 0.63303571 0.64333333 0.60107218 0.62216571 0.33149138
  0.66765873 0.66380952 0.65294364 0.65774139]
 [0.58929497 0.78727273 0.83238095 0.77157969 0.79256697 0.46195906
  0.73214286 0.73095238 0.72322716 0.72691194]
 [0.34227834 0.66833333 0.69714286 0.63934543 0.66305231 0.54542408
  0.77444444 0.7847619  0.7676558  0.77151314]
 [0.13118493 0.56444444 0.61       0.51160601 0.55340007 0.12146
  0.56051587 0.57095238 0.53527306 0.55345742]
 [0.79616872 0.90222222 0.89952381 0.89689106 0.89564441 0.37015731
  0.68666667 0.71761905 0.66455962 0.68103927]]
KNN mean:
[0.38009206 0.68678602 0.72703175 0.64053174 0.68247501 0.38863502
 0.69228403 0.71844444 0.66018452 0.68731288]
---------------------------
---------------------------
DT performance:
[[0.44060257 0.72767857 0.73095238 0.72596696 0.72375208 0.35438113
  0.70416667 0.79190476 0.60477611 0.70310943]
 [0.43068047 0.71805556 0.71809524 0.71996814 0.71361925 0.52875042
  0.77055556 0.77809524 0.73242493 0.76305014]
 [0.33536449 0.67251984 0.69       0.65072281 0.66706056 0.43966413
  0.73214286 0.73142857 0.71807552 0.72666182]
 [0.32516206 0.68214286 0.68380952 0.66722066 0.6778575  0.16132495
  0.6275     0.7047619  0.55797061 0.63043062]
 [0.46219571 0.78222222 0.78380952 0.76370865 0.77343424 0.51702773
  0.76517857 0.76619048 0.74235271 0.76292663]
 [0.41182458 0.72857143 0.72571429 0.69939814 0.7198012  0.5842089
  0.78392857 0.78428571 0.77617575 0.78106882]
 [0.26287183 0.6375     0.65809524 0.62891526 0.63302031 0.20811528
  0.59732143 0.59761905 0.5660129  0.59475248]
 [0.65356231 0.82886364 0.83857143 0.78970703 0.81743549 0.5802401
  0.77166667 0.77761905 0.75333151 0.76133039]
 [0.35120628 0.69022727 0.71857143 0.68279666 0.66921315 0.25534288
  0.63659091 0.67809524 0.61261499 0.62940115]
 [0.22626656 0.65446429 0.65142857 0.62246868 0.64307908 0.28528326
  0.62232143 0.62380952 0.61861824 0.61741624]
 [0.20274925 0.56458333 0.57809524 0.54733197 0.55614926 0.27840545
  0.64555556 0.6647619  0.66929699 0.63808622]
 [0.47879269 0.70611111 0.72571429 0.70926254 0.69853183 0.45927983
  0.74222222 0.75809524 0.73900501 0.73967589]
 [0.18859812 0.62073413 0.62380952 0.59362734 0.61473613 0.25582337
  0.57787698 0.58428571 0.5848809  0.57385793]
 [0.11278975 0.53666667 0.57714286 0.43156912 0.53629851 0.37637521
  0.69553571 0.69238095 0.66351456 0.68424373]
 [0.34661734 0.68340909 0.69142857 0.66587614 0.65948527 0.31054638
  0.71888889 0.72333333 0.69713072 0.69877173]
 [0.23424243 0.63388889 0.66428571 0.5651905  0.63135375 0.42178197
  0.74166667 0.77285714 0.70131797 0.74397661]
 [0.62451129 0.83194444 0.83952381 0.81686755 0.82679189 0.43269519
  0.75426587 0.7647619  0.71263828 0.75164416]
 [0.19566266 0.69455128 0.81857143 0.55962237 0.65343323 0.22237648
  0.64761905 0.65761905 0.63681152 0.63935178]
 [0.483467   0.71818182 0.7652381  0.73087908 0.7134962  0.39674287
  0.68928571 0.68380952 0.70932757 0.68083701]
 [0.38007776 0.66944444 0.71095238 0.65840347 0.65849282 0.22291914
  0.58222222 0.62333333 0.56037206 0.5722405 ]
 [0.39828449 0.69015152 0.76571429 0.63535166 0.66505377 0.08000932
  0.59553571 0.59142857 0.56080882 0.58734055]
 [0.30649075 0.66696429 0.6652381  0.63554061 0.65950549 0.09201349
  0.55611111 0.58285714 0.506052   0.54621779]
 [0.18215436 0.63462302 0.64333333 0.60152659 0.62742428 0.33010359
  0.70378788 0.74428571 0.66261762 0.68576698]
 [0.23052423 0.62142857 0.62428571 0.61592874 0.61146929 0.37404962
  0.73055556 0.73809524 0.6935109  0.72649824]
 [0.36791422 0.68829365 0.69190476 0.665863   0.6820822  0.48795324
  0.75       0.75047619 0.75643895 0.74809192]
 [0.24506901 0.6219246  0.62428571 0.61946006 0.61072108 0.48810093
  0.75446429 0.75238095 0.72530737 0.74834985]
 [0.34037886 0.71363636 0.7447619  0.62078792 0.69816226 0.58395476
  0.76607143 0.7652381  0.76783796 0.7603979 ]
 [0.36102447 0.67555556 0.69761905 0.65485887 0.6743291  0.43430016
  0.71611111 0.73904762 0.71012211 0.70910703]
 [0.10461153 0.54333333 0.57714286 0.46126853 0.53964815 0.04767073
  0.54047619 0.53714286 0.48659867 0.5194246 ]
 [0.70175842 0.83666667 0.8452381  0.83424542 0.83222497 0.49316525
  0.755      0.77857143 0.69557223 0.74935362]]
DT mean:
[0.34618185 0.68247795 0.70244444 0.65247782 0.67292208 0.35675352
 0.68915416 0.70461905 0.66405052 0.68244606]
---------------------------
---------------------------
RF performance:
[[0.64394548 0.8235119  0.8252381  0.79056363 0.82218296 0.51969865
  0.73106061 0.81285714 0.57324068 0.7358531 ]
 [0.53604963 0.8014881  0.80666667 0.76978397 0.79983432 0.66026059
  0.75833333 0.7847619  0.68045831 0.75668233]
 [0.22816339 0.69791667 0.71761905 0.71807221 0.6883266  0.37032446
  0.72767857 0.7252381  0.76208624 0.72146448]
 [0.36621437 0.69642857 0.69714286 0.66213525 0.69318304 0.11802148
  0.56977273 0.66428571 0.48750517 0.55688397]
 [0.64010122 0.805      0.81904762 0.79011489 0.80187828 0.40835849
  0.76607143 0.76571429 0.76513286 0.76278954]
 [0.43714162 0.70803571 0.70428571 0.75706656 0.70100616 0.59245147
  0.81607143 0.81809524 0.77133802 0.81530615]
 [0.35776228 0.65972222 0.67809524 0.66476841 0.65909098 0.40494678
  0.63035714 0.63047619 0.62271611 0.62676147]
 [0.81621136 0.87295455 0.90666667 0.877772   0.87936698 0.54913864
  0.82222222 0.81857143 0.78908135 0.8090591 ]
 [0.42413576 0.74227273 0.7852381  0.67035957 0.73522262 0.21966679
  0.59659091 0.6647619  0.48653817 0.58542413]
 [0.38390928 0.70267857 0.69809524 0.70189096 0.69126176 0.22388704
  0.72142857 0.72380952 0.6227858  0.71759436]
 [0.17333012 0.57708333 0.59666667 0.43938245 0.55668235 0.3616243
  0.71222222 0.73857143 0.72049017 0.71165906]
 [0.57062987 0.78833333 0.81285714 0.78268515 0.78581384 0.55008841
  0.74611111 0.75952381 0.68833031 0.73815303]
 [0.40342873 0.71170635 0.73095238 0.68012975 0.70781249 0.2194679
  0.63630952 0.64380952 0.59576486 0.63102689]
 [0.07803929 0.57333333 0.62428571 0.557098   0.55299854 0.3408779
  0.68660714 0.6847619  0.69929332 0.67426802]
 [0.19637555 0.61340909 0.6652381  0.57850717 0.60721344 0.35855458
  0.59444444 0.64333333 0.68032533 0.59339578]
 [0.29305949 0.64666667 0.6647619  0.60458991 0.63854713 0.54405104
  0.76666667 0.79142857 0.77135163 0.76619826]
 [0.6590605  0.85396825 0.87333333 0.82296114 0.85846254 0.52809547
  0.75357143 0.7647619  0.7997925  0.75257242]
 [0.22398821 0.60641026 0.81904762 0.26293497 0.54910036 0.47452496
  0.73888889 0.75190476 0.64704446 0.73599685]
 [0.42877744 0.74477273 0.80571429 0.73904331 0.74900027 0.52172988
  0.74781746 0.75809524 0.74562864 0.74909906]
 [0.34945204 0.75444444 0.79238095 0.64811178 0.75416591 0.20332568
  0.67888889 0.69809524 0.53792564 0.6658436 ]
 [0.16359515 0.4905303  0.71142857 0.27882088 0.46694872 0.12363802
  0.55178571 0.5447619  0.51122251 0.53551563]
 [0.32746323 0.65714286 0.65714286 0.62954284 0.65384481 0.27721925
  0.715      0.75142857 0.58888524 0.71636635]
 [0.15596817 0.57638889 0.59095238 0.56301781 0.57225513 0.26028183
  0.64393939 0.7447619  0.54030864 0.64578016]
 [0.33536372 0.63928571 0.64333333 0.69036251 0.62910152 0.48983749
  0.75188492 0.75809524 0.74541136 0.74986309]
 [0.39901547 0.73293651 0.74571429 0.68658281 0.72396799 0.65232039
  0.80089286 0.79904762 0.8309189  0.79626005]
 [0.27354332 0.58809524 0.59       0.59898876 0.57828075 0.3857966
  0.7859127  0.7852381  0.71795798 0.77995939]
 [0.48760932 0.73022727 0.77904762 0.71820243 0.72639662 0.67446312
  0.73482143 0.73666667 0.7594504  0.7322505 ]
 [0.2506035  0.60333333 0.6452381  0.60319534 0.59427375 0.4894465
  0.77611111 0.79190476 0.77556802 0.7729449 ]
 [0.30037141 0.67111111 0.71190476 0.59333616 0.67265194 0.09002858
  0.58065476 0.58428571 0.57084088 0.57139538]
 [0.69541088 0.84666667 0.8652381  0.79577273 0.84848162 0.44878432
  0.74       0.77190476 0.74547832 0.73236369]]
RF mean:
[0.38662399 0.69719516 0.73211111 0.65585978 0.68991178 0.40203035
 0.70940392 0.73036508 0.67442906 0.70462436]
---------------------------
---------------------------
SVM performance:
[[ 0.09955524  0.54732143  0.57714286  0.32130498  0.47427034  0.
   0.5         0.75190476  0.          0.42904274]
 [ 0.34355904  0.66626984  0.68571429  0.62440758  0.65659604  0.22082718
   0.59666667  0.67809524  0.41491995  0.56223257]
 [ 0.44098588  0.71041667  0.75142857  0.59813813  0.68527278  0.37124831
   0.68660714  0.68333333  0.67444397  0.67930753]
 [ 0.30438318  0.64821429  0.66428571  0.57947925  0.62374517  0.
   0.5         0.71809524  0.          0.41782051]
 [ 0.53262913  0.74722222  0.79952381  0.71198074  0.75868516  0.47281323
   0.73482143  0.73904762  0.72562214  0.73347904]
 [ 0.37703498  0.69107143  0.68428571  0.66068512  0.67277487  0.49072707
   0.74553571  0.7447619   0.73669656  0.74133673]
 [ 0.          0.5         0.59714286  0.          0.37386364  0.27416684
   0.6375      0.63714286  0.62840738  0.63245637]
 [ 0.71293523  0.83295455  0.88619048  0.81542603  0.85403805  0.33862344
   0.65611111  0.71809524  0.54320853  0.63762234]
 [ 0.          0.5         0.6847619   0.          0.40628205  0.
   0.5         0.69142857  0.          0.40858974]
 [ 0.35418799  0.67857143  0.67666667  0.66611419  0.67175447  0.21952766
   0.60714286  0.62380952  0.50606742  0.57510205]
 [ 0.          0.5         0.59714286  0.          0.37386364  0.00645161
   0.50277778  0.61095238  0.04082483  0.39232919]
 [ 0.08931452  0.53777778  0.64428571  0.20568586  0.45907585  0.01
   0.505       0.60428571  0.05291503  0.39413043]
 [ 0.01935484  0.50833333  0.59047619  0.04082483  0.384345    0.
   0.5         0.57047619  0.          0.36299407]
 [ 0.          0.5         0.63761905  0.          0.38913043  0.42237864
   0.71160714  0.71142857  0.6977784   0.70512596]
 [ 0.          0.5         0.67809524  0.          0.40397436  0.
   0.5         0.63095238  0.          0.38663043]
 [ 0.          0.5         0.60428571  0.          0.37663043 -0.0125
   0.495       0.65095238  0.          0.39413043]
 [ 0.          0.5         0.59047619  0.          0.37114625  0.
   0.5         0.59047619  0.          0.37114625]
 [ 0.          0.5         0.85238095  0.          0.46004274  0.
   0.5         0.58380952  0.          0.36842885]
 [ 0.          0.5         0.69809524  0.          0.41089744  0.
   0.5         0.55714286  0.          0.35755929]
 [ 0.          0.5         0.66428571  0.          0.39913043  0.
   0.5         0.63095238  0.          0.38663043]
 [ 0.          0.5         0.77857143  0.          0.43758974 -0.01811638
   0.49107143  0.47666667  0.21385557  0.38750804]
 [ 0.2451104   0.62232143  0.62380952  0.60279363  0.61440341  0.
   0.5         0.63761905  0.          0.38913043]
 [ 0.          0.5         0.58380952  0.          0.36842885  0.
   0.5         0.73857143  0.          0.42476923]
 [ 0.          0.5         0.52333333  0.          0.34341238  0.28763955
   0.63373016  0.6847619   0.48596581  0.59442249]
 [ 0.          0.5         0.57714286  0.          0.36571146  0.42617762
   0.71428571  0.71142857  0.69957817  0.70628887]
 [ 0.          0.5         0.54380952  0.          0.35212451  0.42000579
   0.70605159  0.71666667  0.69091856  0.70514571]
 [ 0.05725806  0.5225      0.71190476  0.09472136  0.45104236  0.56992545
   0.78482143  0.7852381   0.77458471  0.78086808]
 [ 0.          0.5         0.62428571  0.          0.38413043  0.01935484
   0.50833333  0.61095238  0.04082483  0.39254658]
 [ 0.          0.5         0.62428571  0.          0.38413043  0.01509434
   0.50714286  0.55047619  0.03779645  0.36620553]
 [ 0.50885368  0.73555556  0.79190476  0.68546284  0.74130592  0.17362616
   0.57444444  0.68428571  0.34790827  0.53385313]]
SVM mean:
[0.13617207 0.564951   0.66490476 0.22023415 0.48825996 0.15693238
 0.57662169 0.65746032 0.27707722 0.50722777]
---------------------------
---------------------------
GBM performance:
[[ 0.57843528  0.78095238  0.7852381   0.77788457  0.77789173  0.22658742
   0.59962121  0.79285714  0.28896288  0.5753512 ]
 [ 0.47950934  0.73065476  0.75238095  0.69235473  0.72664349  0.45385793
   0.69833333  0.75142857  0.6007082   0.69135199]
 [ 0.46749696  0.72331349  0.75809524  0.64625392  0.7145259   0.34780031
   0.68214286  0.67714286  0.63891863  0.66212879]
 [ 0.234864    0.61785714  0.62380952  0.59824229  0.60631141 -0.00453289
   0.49886364  0.7047619   0.0452267   0.42662128]
 [ 0.61622174  0.79388889  0.83285714  0.76832884  0.8027714   0.41395708
   0.70535714  0.71190476  0.68201072  0.69744155]
 [ 0.44109144  0.72232143  0.71904762  0.68929833  0.70957372  0.5631861
   0.77946429  0.78571429  0.74488995  0.77375284]
 [ 0.39289777  0.68194444  0.71809524  0.63760982  0.67791201  0.2901593
   0.63928571  0.63761905  0.63270939  0.63478938]
 [ 0.71431905  0.84295455  0.87285714  0.81938491  0.84379889  0.60020622
   0.78833333  0.81190476  0.76203374  0.78174862]
 [ 0.1824068   0.58840909  0.71095238  0.34646466  0.54852365  0.12375988
   0.55        0.71142857  0.24809837  0.50835635]
 [ 0.2964645   0.64732143  0.65047619  0.62354669  0.63531306  0.35937461
   0.67767857  0.68380952  0.66193548  0.67404322]
 [ 0.13943903  0.55694444  0.61666667  0.41943163  0.52251526  0.39216311
   0.7         0.73904762  0.66045131  0.69756247]
 [ 0.53445469  0.75777778  0.79952381  0.71431406  0.75575904  0.51029963
   0.74944444  0.77904762  0.72178966  0.74183483]
 [ 0.38081693  0.68611111  0.71142857  0.63206078  0.66970655  0.20367505
   0.59801587  0.62380952  0.5641271   0.59029597]
 [ 0.02278621  0.51        0.62428571  0.14098626  0.44505364  0.48831616
   0.74375     0.74428571  0.72155312  0.73405956]
 [ 0.03225806  0.5025      0.65857143  0.17472136  0.44276553  0.0986563
   0.54333333  0.63095238  0.36485624  0.50756839]
 [ 0.13068859  0.55        0.63714286  0.24921801  0.48077906  0.45069414
   0.695       0.77190476  0.65101927  0.70425089]
 [ 0.72329196  0.8625      0.87952381  0.84329614  0.86539627  0.39886687
   0.69107143  0.73095238  0.63375088  0.68229649]
 [ 0.06341463  0.525       0.85904762  0.          0.49509565  0.37546584
   0.67123016  0.69190476  0.62720718  0.66013901]
 [ 0.2467017   0.60886364  0.74571429  0.40968181  0.59146824  0.46801506
   0.72837302  0.7452381   0.70683227  0.72769324]
 [ 0.36380317  0.665       0.75809524  0.54788748  0.65671466  0.09960637
   0.54888889  0.65095238  0.24391126  0.49596423]
 [ 0.10634921  0.54166667  0.7852381   0.17074713  0.50842735  0.13931357
   0.55535714  0.55095238  0.54449289  0.54280776]
 [ 0.44447182  0.72946429  0.73047619  0.71226007  0.72365364  0.27773456
   0.62722222  0.70428571  0.52405367  0.61873636]
 [ 0.19819423  0.5953373   0.63714286  0.49238058  0.57178138  0.37824881
   0.65757576  0.81190476  0.53074521  0.66913585]
 [ 0.21116745  0.62410714  0.63        0.60923901  0.62007847  0.53685547
   0.76904762  0.77285714  0.74608098  0.76379881]
 [ 0.28397776  0.63134921  0.67190476  0.55095146  0.61475906  0.50316608
   0.75267857  0.75095238  0.73995324  0.74612512]
 [ 0.27284812  0.65327381  0.66428571  0.6216834   0.64676433  0.61545507
   0.80515873  0.81190476  0.79458439  0.80441533]
 [ 0.37899762  0.66386364  0.75857143  0.64459906  0.66628783  0.59525604
   0.79910714  0.79857143  0.7753549   0.79286298]
 [ 0.21304117  0.59444444  0.67857143  0.45520395  0.57139218  0.42773436
   0.70888889  0.75190476  0.66067921  0.70775253]
 [ 0.34486759  0.65388889  0.7252381   0.57428821  0.64787413  0.09408441
   0.55178571  0.56380952  0.50167343  0.53422523]
 [ 0.66208836  0.85611111  0.87238095  0.83580201  0.86028205  0.437436
   0.70055556  0.77857143  0.60398158  0.69789865]]
GBM mean:
[0.33857884 0.6632607  0.72892063 0.54660404 0.64666065 0.36217996
 0.67385215 0.7224127  0.58741973 0.6615003 ]
---------------------------
---------------------------
BDDAE performance:
[[-0.0661123   0.46651786  0.47        0.43325395  0.45169157  0.04846676
   0.51770186  0.76333333  0.14782441  0.47675036]
 [ 0.27518212  0.63891403  0.64        0.63640589  0.63578262  0.57971002
   0.77916667  0.80666667  0.76366406  0.78687271]
 [ 0.09906073  0.54841629  0.56        0.53068239  0.54346843  0.06666667
   0.53333333  0.53333333  0.4954203   0.51512983]
 [-0.11791629  0.44151786  0.44666667  0.42325236  0.43493325  0.02122374
   0.51136364  0.70333333  0.17635386  0.46729505]
 [ 0.50955408  0.75909091  0.77        0.74587974  0.75040426  0.2605884
   0.63125     0.62666667  0.61813437  0.62184576]
 [ 0.50666667  0.75333333  0.75333333  0.74067861  0.74861269 -0.15174771
   0.42455357  0.42666667  0.39353723  0.41117268]
 [-0.00776098  0.49861111  0.51333333  0.44562603  0.48418295  0.04
   0.52        0.52        0.44086272  0.48947048]
 [ 0.42999715  0.7025      0.76333333  0.67149548  0.71087614  0.17684775
   0.58611111  0.61333333  0.56434089  0.58450004]
 [ 0.39028832  0.67142857  0.78        0.59285233  0.67936364  0.46941494
   0.6984127   0.81333333  0.63165867  0.72240473]
 [ 0.04        0.52        0.52        0.50244377  0.51130843  0.20920071
   0.60401786  0.61        0.58910371  0.59962179]
 [ 0.08360385  0.54305556  0.57333333  0.49141946  0.52859366  0.21958755
   0.6         0.66        0.50230084  0.58057553]
 [ 0.10391186  0.55023923  0.6         0.51099381  0.5476844   0.35292807
   0.68472222  0.67666667  0.67746336  0.6709286 ]
 [ 0.16911137  0.58333333  0.60333333  0.56803037  0.58105384  0.30802474
   0.65339367  0.66666667  0.6215025   0.64284672]
 [ 0.16378238  0.58181818  0.61333333  0.55922254  0.57845858  0.3958919
   0.69776786  0.7         0.69298285  0.69639349]
 [-0.02872746  0.4875      0.59666667  0.31581094  0.46667125  0.07633544
   0.53684211  0.6         0.44327969  0.5234578 ]
 [ 0.01059342  0.50972222  0.54666667  0.34689289  0.45977494  0.25257189
   0.6125      0.71666667  0.47699713  0.59690485]
 [ 0.50223661  0.75833333  0.76        0.74289743  0.74617272  0.24598795
   0.61111111  0.67666667  0.50203391  0.58825374]
 [ 0.39775152  0.72403846  0.87        0.57566777  0.6949561   0.12462575
   0.55972222  0.58333333  0.54345577  0.55958598]
 [ 0.18733688  0.58968254  0.68333333  0.52178281  0.58497431  0.37625066
   0.68371041  0.7         0.66507267  0.68248832]
 [ 0.23468767  0.6125      0.67        0.56451955  0.60532539 -0.01508835
   0.49330144  0.59333333  0.25201288  0.44182755]
 [-0.05004518  0.4742236   0.69666667  0.10091987  0.44190892  0.11333333
   0.55666667  0.55666667  0.54191163  0.54950451]
 [ 0.01953306  0.50982143  0.50666667  0.50151253  0.50360361  0.03248676
   0.515311    0.60666667  0.32314754  0.47667332]
 [-0.08271345  0.45972222  0.48333333  0.41196202  0.45260055  0.34870774
   0.64943182  0.78333333  0.5750375   0.66399835]
 [ 0.16290261  0.58169643  0.58333333  0.56587578  0.57414987  0.12798634
   0.56402715  0.57666667  0.54813385  0.56033192]
 [ 0.14688688  0.57217195  0.59        0.55012164  0.56872237  0.08666667
   0.54333333  0.54333333  0.53274573  0.53815124]
 [ 0.25153378  0.62366071  0.63333333  0.59737548  0.61581625  0.25968207
   0.628125    0.63666667  0.60999145  0.62357583]
 [ 0.38890585  0.69126984  0.75        0.66681602  0.69226889  0.5239161
   0.75803571  0.76666667  0.73862693  0.7553111 ]
 [-0.11481974  0.4437799   0.49666667  0.38536427  0.43696933  0.30424581
   0.64305556  0.68666667  0.59886063  0.64098204]
 [ 0.1150672   0.5576555   0.59        0.52299515  0.5480509   0.40160048
   0.69776786  0.70666667  0.67987329  0.6946942 ]
 [ 0.26317645  0.62727273  0.67333333  0.5908895   0.62447101  0.05784376
   0.52488038  0.60666667  0.41064033  0.50352666]]
BDDAE mean:
[0.1661225  0.58272757 0.62455556 0.52712135 0.57342836 0.2104652
 0.60065387 0.64866667 0.52523236 0.58883584]
---------------------------
---------------------------
DUMMY performance:
[[0.         0.5        0.53714286 0.         0.34940711 0.
  0.5        0.75190476 0.         0.42904274]
 [0.         0.5        0.55047619 0.         0.3548419  0.
  0.5        0.61095238 0.         0.37913043]
 [0.         0.5        0.57047619 0.         0.36299407 0.
  0.5        0.47       0.         0.31969697]
 [0.         0.5        0.53       0.         0.34637681 0.
  0.5        0.71809524 0.         0.41782051]
 [0.         0.5        0.62428571 0.         0.38413043 0.
  0.5        0.51666667 0.         0.34044796]
 [0.         0.5        0.47       0.         0.31969697 0.
  0.5        0.52333333 0.         0.34341238]
 [0.         0.5        0.59714286 0.         0.37386364 0.
  0.5        0.47       0.         0.31969697]
 [0.         0.5        0.67809524 0.         0.40397436 0.
  0.5        0.61095238 0.         0.37913043]
 [0.         0.5        0.6847619  0.         0.40628205 0.
  0.5        0.69142857 0.         0.40858974]
 [0.         0.5        0.47       0.         0.31969697 0.
  0.5        0.53       0.         0.34637681]
 [0.         0.5        0.59714286 0.         0.37386364 0.
  0.5        0.61095238 0.         0.37913043]
 [0.         0.5        0.61761905 0.         0.38163043 0.
  0.5        0.61095238 0.         0.37913043]
 [0.         0.5        0.58380952 0.         0.36842885 0.
  0.5        0.57047619 0.         0.36299407]
 [0.         0.5        0.63761905 0.         0.38913043 0.
  0.5        0.51666667 0.         0.34044796]
 [0.         0.5        0.67809524 0.         0.40397436 0.
  0.5        0.63095238 0.         0.38663043]
 [0.         0.5        0.60428571 0.         0.37663043 0.
  0.5        0.65761905 0.         0.39663043]
 [0.         0.5        0.59047619 0.         0.37114625 0.
  0.5        0.59047619 0.         0.37114625]
 [0.         0.5        0.85238095 0.         0.46004274 0.
  0.5        0.58380952 0.         0.36842885]
 [0.         0.5        0.69809524 0.         0.41089744 0.
  0.5        0.55714286 0.         0.35755929]
 [0.         0.5        0.66428571 0.         0.39913043 0.
  0.5        0.63095238 0.         0.38663043]
 [0.         0.5        0.77857143 0.         0.43758974 0.
  0.5        0.47       0.         0.31969697]
 [0.         0.5        0.51666667 0.         0.34044796 0.
  0.5        0.63761905 0.         0.38913043]
 [0.         0.5        0.58380952 0.         0.36842885 0.
  0.5        0.73857143 0.         0.42476923]
 [0.         0.5        0.52333333 0.         0.34341238 0.
  0.5        0.57047619 0.         0.36299407]
 [0.         0.5        0.57714286 0.         0.36571146 0.
  0.5        0.47       0.         0.31969697]
 [0.         0.5        0.54380952 0.         0.35212451 0.
  0.5        0.54380952 0.         0.35212451]
 [0.         0.5        0.69809524 0.         0.41089744 0.
  0.5        0.51666667 0.         0.34044796]
 [0.         0.5        0.62428571 0.         0.38413043 0.
  0.5        0.60428571 0.         0.37663043]
 [0.         0.5        0.62428571 0.         0.38413043 0.
  0.5        0.54380952 0.         0.35212451]
 [0.         0.5        0.62428571 0.         0.38413043 0.
  0.5        0.64428571 0.         0.39163043]]
DUMMY mean:
[0.         0.5        0.61101587 0.         0.37757143 0.
 0.5        0.58642857 0.         0.36804397]
---------------------------
Current folder: C:\Users\Javier\Dropbox\c_sldl_1_2_12
-------------------------------------
----- RESULTS from .csv files ------
-------------------------------------
---------------------------
ALG Means: 
-rows: alg : KNN = 0; DT = 1; RF = 2; SVM = 3; GBM = 4; BDDAE = 5; DUMMY = 5
columns:
'val_cohen','val_uar', 'val_acc', 'val_gm',  'val_f1',  'aro_cohen','aro_uar', 'aro_acc', 'aro_gm',  'aro_f1'
-------------------------------------------------------------
  v_c   v_u   v_a   v_g   v_f1  a_c   a_u   a_a   a_g   a_f1
[[0.38  0.687 0.727 0.641 0.682 0.389 0.692 0.718 0.66  0.687]
 [0.346 0.682 0.702 0.652 0.673 0.357 0.689 0.705 0.664 0.682]
 [0.387 0.697 0.732 0.656 0.69  0.402 0.709 0.73  0.674 0.705]
 [0.136 0.565 0.665 0.22  0.488 0.157 0.577 0.657 0.277 0.507]
 [0.339 0.663 0.729 0.547 0.647 0.362 0.674 0.722 0.587 0.662]
 [0.166 0.583 0.625 0.527 0.573 0.21  0.601 0.649 0.525 0.589]
 [0.    0.5   0.611 0.    0.378 0.    0.5   0.586 0.    0.368]]
-------------------------------------------------------------
Standard Deviation of each metric:
[[0.19  0.094 0.084 0.148 0.099 0.152 0.078 0.074 0.095 0.078]
 [0.146 0.073 0.075 0.089 0.073 0.149 0.072 0.073 0.079 0.074]
 [0.177 0.094 0.087 0.138 0.102 0.164 0.074 0.069 0.1   0.076]
 [0.204 0.097 0.088 0.298 0.146 0.194 0.096 0.07  0.306 0.144]
 [0.195 0.099 0.08  0.217 0.116 0.169 0.084 0.069 0.178 0.097]
 [0.189 0.094 0.106 0.134 0.098 0.171 0.082 0.089 0.15  0.094]
 [0.    0.    0.082 0.    0.031 0.    0.    0.077 0.    0.03 ]]
-------------------------------------------------------------
std_dev/mean [percentage]:
[[ 50.  14.  12.  23.  15.  39.  11.  10.  14.  11.]
 [ 42.  11.  11.  14.  11.  42.  10.  10.  12.  11.]
 [ 46.  13.  12.  21.  15.  41.  10.   9.  15.  11.]
 [150.  17.  13. 135.  30. 124.  17.  11. 110.  28.]
 [ 58.  15.  11.  40.  18.  47.  12.  10.  30.  15.]
 [114.  16.  17.  25.  17.  81.  14.  14.  29.  16.]
 [  0.   0.  13.   0.   8.   0.   0.  13.   0.   8.]]
-------------------------------------
Current folder: C:\Users\Javier\Dropbox\c_sldl_1_2_12
-------------------------------------
----- RESULTS ------
-------------------------------------
Window size (sec):  11.008
step (sec):  8.256
overlap:  True
perc. of overlap:  25.0
overlap duration (sec):  2.752
Number of windows / instances:  149
Elapsed time: 576.1780905922254 minutes
Elapsed time: 9.60296817653709 hours
