2024-03-07 18:04:58.407781: I tensorflow/core/util/port.cc:113] oneDNN custom operations are on. You may see slightly different numerical results due to floating-point round-off errors from different computation orders. To turn them off, set the environment variable `TF_ENABLE_ONEDNN_OPTS=0`.
2024-03-07 18:04:59.093453: I tensorflow/core/util/port.cc:113] oneDNN custom operations are on. You may see slightly different numerical results due to floating-point round-off errors from different computation orders. To turn them off, set the environment variable `TF_ENABLE_ONEDNN_OPTS=0`.
2024-03-07 18:05:00.486532: I tensorflow/core/platform/cpu_feature_guard.cc:210] This TensorFlow binary is optimized to use available CPU instructions in performance-critical operations.
To enable the following instructions: AVX2 FMA, in other operations, rebuild TensorFlow with the appropriate compiler flags.
    
    
-------------------------------
participant:  1
-------------------------------
    
    
participant:  1
corriendo en PC gamer:
Window size (sec):  8.0
step (sec):  6.0
overlap:  True
perc. of overlap:  25.0
Nearest multiple of 16 to 8000 is: 8000
Nearest multiple of 16 to 6000 is: 6000
['gsr_chunks', 'ppg_chunks', 'val_chunks', 'aro_chunks', 'time_chunks', 'tag_chunks', 'video']
C:\Users\Javier\Dropbox\c_sldl_3_1_2\functions.py:880: FutureWarning: ChainedAssignmentError: behaviour will change in pandas 3.0!

---------Warning:---------
too few peak-peak intervals for (reliable) frequency domain measure computation, frequency output measures are still computed but treat them with caution!

HF is usually computed over a minimum of 1 minute of good signal. LF is usually computed over a minimum of 2 minutes of good signal.VLF is usually computed over a minimum of 5 minutes of good signal.The LF/HF ratio is usually computed over minimum 24 hours, although an absolute minimum of 5 min has also been suggested.

For more info see: 
Shaffer, F., Ginsberg, J.P. (2017), An Overview of Heart Rate Variability Metrics and Norms.

Task Force of Pacing and Electrophysiology (1996), Heart Rate Variability, in: European Heart Journal, vol.17, issue 3, pp354-381

This warning will not repeat
  warnings.warn(msg, UserWarning)
Class Imbalance test (arousal)....
Multiclass distribution
Class=1, n=136 (66.341%)
Class=0, n=69 (33.659%)
Class Imbalance test (valence)....
Multiclass distribution
Class=0, n=80 (39.024%)
Class=1, n=125 (60.976%)
------------- Evaluating model --------------
------------- Evaluating model --------------
------------- Evaluating model --------------
------------- Evaluating model --------------
------------- Evaluating model --------------
arousal and valece = ok
------------- Evaluating model --------------
-------------------------------------
-------------------------------------
participant:  30
-------------------------------------
----- RESULTS ------
-------------------------------------
Window size (sec):  8.0
step (sec):  6.0
overlap:  True
perc. of overlap:  25.0
Number of windows / instances:  205
-rows: alg : KNN = 0; DT = 1; RF = 2; SVM = 3; GBM = 4; BDDAE = 5; DUMMY = 5
columns:
'val_cohen','val_uar', 'val_acc', 'val_gm',  'val_f1',  'aro_cohen','aro_uar', 'aro_acc', 'aro_gm',  'aro_f1'
-------------------------------------------------------------
  v_c   v_u   v_a   v_g   v_f1  a_c   a_u   a_a   a_g   a_f1
[[0.255 0.624 0.654 0.604 0.624 0.338 0.673 0.698 0.662 0.666]
 [0.363 0.697 0.712 0.666 0.692 0.484 0.752 0.771 0.744 0.745]
 [0.194 0.636 0.668 0.71  0.636 0.382 0.645 0.698 0.607 0.641]
 [0.    0.5   0.61  0.    0.379 0.    0.5   0.663 0.    0.399]
 [0.256 0.614 0.687 0.496 0.588 0.188 0.576 0.713 0.352 0.542]
 [0.    0.    0.    0.    0.    0.    0.    0.    0.    0.   ]
 [0.    0.5   0.61  0.    0.379 0.    0.5   0.663 0.    0.399]]
participant performance loaded
    
    
-------------------------------
LAST participant's saved data: 
30
-------------------------------
    
    
---------------------------
KNN performance:
[[ 0.39074457  0.69520202  0.69642857  0.69159732  0.69365243  0.26233571
   0.63875     0.73214286  0.57688028  0.62445875]
 [ 0.1793258   0.58959596  0.59547619  0.57809971  0.58553484  0.36169478
   0.67841117  0.70428571  0.66079902  0.67778514]
 [ 0.37647653  0.67975427  0.72214286  0.63465242  0.67715514  0.37646711
   0.68818182  0.68761905  0.67085429  0.67995626]
 [ 0.19634284  0.59732323  0.60095238  0.57697327  0.58950261  0.46637008
   0.73282828  0.73547619  0.72511826  0.7303302 ]
 [ 0.33633571  0.6661859   0.68309524  0.65617243  0.66679797  0.03536062
   0.51818182  0.51690476  0.50662865  0.5120137 ]
 [ 0.47413726  0.72380952  0.78690476  0.6926015   0.73248928  0.41477933
   0.70416667  0.72761905  0.69180191  0.70557961]
 [ 0.28142846  0.63047619  0.72285714  0.56356479  0.63103405  0.30203044
   0.63595238  0.73571429  0.54586445  0.64269619]
 [ 0.37204398  0.685       0.68714286  0.67720189  0.6832112   0.28961109
   0.64426768  0.64904762  0.63475989  0.64092497]
 [-0.01541218  0.49086538  0.52761905  0.44206746  0.48358155  0.52619944
   0.75550214  0.78047619  0.74026171  0.76010265]
 [ 0.64431341  0.82193223  0.83428571  0.81118786  0.81907019  0.40394383
   0.70272436  0.71785714  0.69426488  0.70042101]
 [ 0.26177967  0.63188131  0.6347619   0.6255035   0.62717139  0.13827149
   0.56843434  0.5852381   0.53858155  0.55999208]
 [ 0.17378601  0.58200549  0.64904762  0.51503277  0.57465335  0.20520169
   0.60232323  0.60285714  0.59155886  0.59701873]
 [ 0.1655949   0.57692308  0.66809524  0.46848803  0.5677468   0.06101718
   0.53021978  0.57952381  0.4710942   0.52494107]
 [ 0.39418066  0.69364316  0.71666667  0.67236558  0.6917943   0.31434507
   0.64322344  0.71857143  0.58599084  0.64684615]
 [ 0.58865133  0.80026709  0.79928571  0.79467857  0.79250986  0.29372997
   0.64508547  0.66357143  0.6269973   0.64265143]
 [ 0.16097627  0.56478758  0.84404762  0.24539589  0.56150777  0.24755232
   0.62719017  0.63857143  0.6110776   0.61956955]
 [ 0.1724234   0.57547619  0.68285714  0.49790829  0.57603731  0.36987217
   0.68454545  0.68785714  0.67675713  0.68176133]
 [ 0.26251746  0.6301511   0.67714286  0.59672878  0.62679376  0.25664769
   0.62440476  0.66880952  0.57936201  0.61868615]
 [-0.02116059  0.49229167  0.71738095  0.17205491  0.46873143 -0.00753454
   0.49636364  0.49666667  0.48492191  0.49087696]
 [ 0.13007455  0.56545455  0.5647619   0.54220445  0.55359585  0.14705129
   0.57005495  0.63357143  0.522373    0.56781831]
 [ 0.03076308  0.51458333  0.53166667  0.48935679  0.50818295  0.11400044
   0.55541667  0.69857143  0.38161614  0.54348621]
 [ 0.32784289  0.6614899   0.67380952  0.6450096   0.65853429  0.44346989
   0.72181818  0.72190476  0.71712509  0.71989069]
 [ 0.05394149  0.52722222  0.53142857  0.51224234  0.52133806  0.14867153
   0.57449495  0.5797619   0.55366459  0.56497675]
 [ 0.36663425  0.67        0.75619048  0.61532099  0.67330079  0.43916467
   0.71863636  0.72047619  0.71056115  0.71667003]
 [ 0.14103384  0.56662088  0.625       0.51163513  0.56062222  0.44060259
   0.71672009  0.73690476  0.70310896  0.71699519]
 [ 0.28811634  0.63729396  0.68904762  0.58394257  0.63206286  0.29096083
   0.64244949  0.65857143  0.61093089  0.63518093]
 [ 0.25456254  0.62419872  0.65428571  0.60381842  0.62440989  0.33782606
   0.6731685   0.69785714  0.66248101  0.66644904]]
KNN mean:
[0.25879461 0.62571981 0.67675485 0.57095575 0.62151934 0.28443121
 0.64050058 0.66949735 0.61020132 0.63659552]
---------------------------
---------------------------
DT performance:
[[ 0.42881285  0.72005051  0.72142857  0.70239778  0.70894414  0.32286392
   0.68375     0.75047619  0.64587922  0.66795087]
 [ 0.14985181  0.6034596   0.60928571  0.57552062  0.60000173  0.33655161
   0.66810897  0.68880952  0.64648946  0.65979057]
 [ 0.32655256  0.64540598  0.65404762  0.62511754  0.64089617  0.37758036
   0.70318182  0.70285714  0.68510479  0.69885044]
 [ 0.3479647   0.62914141  0.6297619   0.64925562  0.62628502  0.4190402
   0.66944444  0.67214286  0.67488014  0.66713896]
 [ 0.19816309  0.5928953   0.60428571  0.61022743  0.5884231   0.17709365
   0.61454545  0.61380952  0.56509949  0.60752655]
 [ 0.40302614  0.71190476  0.74142857  0.69604136  0.70381908  0.41246836
   0.70592949  0.72119048  0.6827118   0.70513889]
 [ 0.18170079  0.61880952  0.67904762  0.50346221  0.61191438  0.29265374
   0.6152381   0.66809524  0.60183675  0.60776652]
 [ 0.34413214  0.67227273  0.67357143  0.63082962  0.66963718  0.30351378
   0.64863636  0.65904762  0.61614638  0.6413325 ]
 [-0.03600956  0.46522436  0.47714286  0.41049695  0.4547581   0.36009755
   0.66720085  0.67809524  0.65138946  0.6613298 ]
 [ 0.41658639  0.71991758  0.74142857  0.69932291  0.71625962  0.29960964
   0.66201923  0.68285714  0.6391668   0.66082925]
 [ 0.06181946  0.49494949  0.49666667  0.48792331  0.47907989  0.21410734
   0.57847222  0.58142857  0.58453637  0.57458437]
 [ 0.02468211  0.50082418  0.53166667  0.50615728  0.48158226  0.16726608
   0.56616162  0.56547619  0.5404497   0.5554892 ]
 [ 0.22552718  0.5797619   0.62928571  0.53173976  0.57250426  0.18393691
   0.61311813  0.63952381  0.58307376  0.60971055]
 [ 0.25479462  0.63936966  0.64833333  0.6450859   0.63296038  0.28534849
   0.63965201  0.66880952  0.6336233   0.63493168]
 [ 0.64963461  0.81559829  0.81928571  0.80054312  0.81310522  0.3753162
   0.69369658  0.70738095  0.66546275  0.69256951]
 [ 0.05260305  0.52826797  0.74309524  0.37574189  0.52466233  0.31657463
   0.6525641   0.66380952  0.63694908  0.64836614]
 [ 0.29936869  0.62857143  0.68309524  0.63037227  0.62482123  0.30560206
   0.64328283  0.64785714  0.65481668  0.64004839]
 [ 0.32241774  0.65906593  0.67309524  0.65417169  0.64531623  0.26103474
   0.61703297  0.65428571  0.58170824  0.61541161]
 [-0.07611606  0.53354167  0.67761905  0.38391253  0.53301206  0.20383101
   0.56409091  0.56214286  0.57385899  0.55732441]
 [-0.08545659  0.44818182  0.44714286  0.42229958  0.43801237  0.11794521
   0.54848901  0.58        0.5510032   0.54402941]
 [ 0.08301771  0.56950758  0.58071429  0.49625681  0.56339403 -0.07839902
   0.4625      0.59095238  0.3140842   0.46054997]
 [ 0.35813195  0.66275253  0.66404762  0.64473451  0.65744979  0.36679511
   0.68818182  0.68833333  0.67261852  0.68645628]
 [ 0.05182311  0.54429293  0.5452381   0.55547119  0.54094291  0.27116804
   0.61098485  0.62380952  0.60469894  0.60263113]
 [ 0.17784091  0.61428571  0.66285714  0.54837565  0.60642243  0.46915923
   0.76318182  0.765       0.74500667  0.76336096]
 [-0.08361534  0.47767857  0.52333333  0.39804641  0.46883163  0.22549902
   0.63643162  0.64857143  0.59759593  0.62645172]
 [ 0.11682855  0.59244505  0.60952381  0.57713972  0.58574724  0.29944876
   0.65393939  0.65857143  0.63230872  0.64953677]
 [ 0.36328834  0.69711538  0.71214286  0.66595653  0.69239623  0.4840991
   0.75192308  0.77142857  0.74382589  0.74525078]]
DT mean:
[0.20582855 0.60612192 0.63624339 0.57135556 0.59930293 0.2877854
 0.64154658 0.66128748 0.61941945 0.63645767]
---------------------------
---------------------------
RF performance:
[[ 0.31914168  0.66555556  0.66714286  0.66412932  0.66148732  0.29896048
   0.625       0.73190476  0.54604062  0.61666054]
 [ 0.20362582  0.62323232  0.63071429  0.59955971  0.61702239  0.38287629
   0.67186355  0.70809524  0.69188685  0.66849178]
 [ 0.41618427  0.68199786  0.70261905  0.69926084  0.68168985  0.40414106
   0.65363636  0.65404762  0.62555748  0.64649867]
 [ 0.33828309  0.71888889  0.71809524  0.7354478   0.71617816  0.40878443
   0.7360101   0.74119048  0.70177732  0.7331632 ]
 [ 0.3120014   0.60956197  0.63357143  0.56811697  0.60771947  0.01538235
   0.57181818  0.5702381   0.57273503  0.5646283 ]
 [ 0.43374892  0.70952381  0.75690476  0.69452889  0.71275035  0.47092504
   0.72948718  0.74642857  0.65541822  0.72829525]
 [ 0.23462631  0.60642857  0.66809524  0.56933033  0.59618704  0.21011028
   0.61690476  0.68261905  0.60545022  0.6119215 ]
 [ 0.34274144  0.66818182  0.66738095  0.63094433  0.66199305  0.20580671
   0.65239899  0.65428571  0.60328663  0.64716099]
 [-0.01616565  0.52612179  0.55690476  0.5028699   0.52046682  0.33425833
   0.7411859   0.75190476  0.61547064  0.74038764]
 [ 0.59130252  0.76552198  0.77595238  0.79080256  0.76094133  0.25277788
   0.70769231  0.73214286  0.61417293  0.70583319]
 [ 0.19850504  0.55713384  0.5647619   0.5689967   0.54577538  0.25644822
   0.63465909  0.64380952  0.50994174  0.62766057]
 [ 0.09733015  0.52005495  0.57619048  0.52466958  0.51810299  0.00831706
   0.54318182  0.55047619  0.51646338  0.53543379]
 [ 0.17645103  0.55082418  0.62428571  0.47344001  0.53974659  0.11749306
   0.55556319  0.61047619  0.53359724  0.55612192]
 [ 0.38056829  0.70405983  0.72595238  0.59385882  0.70389115  0.24950969
   0.66346154  0.72809524  0.66469632  0.67222197]
 [ 0.62917789  0.83498932  0.83928571  0.82817052  0.8333092   0.33298665
   0.70475427  0.70880952  0.67521886  0.69587748]
 [ 0.13524412  0.49068627  0.8052381   0.29743973  0.46209971  0.37629282
   0.65849359  0.67428571  0.64313642  0.65478978]
 [ 0.1438837   0.59166667  0.68690476  0.55728972  0.59652828  0.42537696
   0.67583333  0.68261905  0.70523367  0.67485085]
 [ 0.15506006  0.66929945  0.71738095  0.58028414  0.66553259  0.14362007
   0.56403388  0.61357143  0.55868462  0.55414282]
 [-0.01397981  0.48479167  0.71238095  0.21004327  0.46134728  0.15511244
   0.51727273  0.51880952  0.60126785  0.50873115]
 [-0.07434309  0.51545455  0.51595238  0.54901675  0.509807    0.24960844
   0.5864011   0.64285714  0.54975662  0.5758007 ]
 [ 0.04328175  0.48522727  0.50571429  0.4760483   0.47491521  0.06058017
   0.52541667  0.65952381  0.38276751  0.52612082]
 [ 0.32920287  0.72020202  0.72714286  0.66351016  0.71842224  0.45253992
   0.73227273  0.73261905  0.74489624  0.72847273]
 [ 0.10175103  0.55363636  0.56        0.5593219   0.5487212   0.27904593
   0.64924242  0.6552381   0.67219861  0.64435424]
 [ 0.44965688  0.68309524  0.75571429  0.63914396  0.689511    0.47946778
   0.72818182  0.73        0.69599503  0.72540493]
 [ 0.03231426  0.43427198  0.48357143  0.4542008   0.42964632  0.36249702
   0.63648504  0.65285714  0.56664783  0.63011163]
 [ 0.20869693  0.60020604  0.62        0.54214935  0.59355911  0.24129526
   0.60866162  0.61428571  0.60704038  0.60270366]
 [ 0.19351384  0.63605769  0.66833333  0.71007359  0.63569479  0.3822715
   0.64514652  0.69761905  0.60695817  0.64097966]]
RF mean:
[0.2356224  0.61506192 0.66171076 0.58083881 0.60974244 0.27986985
 0.64203921 0.66995591 0.60986283 0.63765999]
---------------------------
---------------------------
SVM performance:
[[ 0.16209441  0.57727273  0.6047619   0.42453586  0.51722333  0.
   0.5         0.75119048  0.          0.42892535]
 [ 0.          0.5         0.55119048  0.          0.35526026  0.
   0.5         0.61952381  0.          0.38246435]
 [ 0.          0.5         0.6047619   0.          0.37680481  0.39665963
   0.69818182  0.69857143  0.67956836  0.69044904]
 [ 0.20954726  0.60313131  0.61047619  0.5459697   0.57929254  0.28495782
   0.63646465  0.66309524  0.516551    0.5919041 ]
 [ 0.          0.5         0.5952381   0.          0.3730615   0.16791608
   0.58409091  0.58428571  0.57407505  0.57921058]
 [ 0.45975701  0.69761905  0.80619048  0.60677578  0.70760199  0.26267272
   0.61586538  0.69285714  0.49428795  0.59230688]
 [ 0.          0.5         0.68809524  0.          0.40754902  0.
   0.5         0.68809524  0.          0.40754902]
 [ 0.21022852  0.605       0.6097619   0.56004436  0.58632452 -0.01907363
   0.49116162  0.53642857  0.10930681  0.380108  ]
 [ 0.          0.5         0.6         0.          0.37493316  0.36189383
   0.66730769  0.72261905  0.58495514  0.65583032]
 [ 0.71705235  0.86513278  0.86357143  0.86358077  0.85796029  0.0150289
   0.50625     0.61428571  0.03535534  0.39094623]
 [ 0.          0.5         0.58071429  0.          0.36730205  0.
   0.5         0.57071429  0.          0.36326979]
 [ 0.          0.5         0.63928571  0.          0.38991087 -0.0046061
   0.49747475  0.53238095  0.06511542  0.36419195]
 [ 0.          0.5         0.66833333  0.          0.40053476  0.
   0.5         0.64880952  0.          0.39344029]
 [ 0.          0.5         0.5952381   0.          0.3730615   0.
   0.5         0.66333333  0.          0.39875223]
 [ 0.60988805  0.80411325  0.81380952  0.79176741  0.80156305  0.
   0.5         0.59047619  0.          0.37118984]
 [ 0.          0.5         0.84404762  0.          0.45766495  0.
   0.5         0.5952381   0.          0.3730615 ]
 [ 0.          0.5         0.69761905  0.          0.41088235  0.44008458
   0.71719697  0.72690476  0.70395648  0.71592241]
 [ 0.          0.5         0.65357143  0.          0.39520499  0.
   0.5         0.62952381  0.          0.38625223]
 [ 0.          0.5         0.77595238  0.          0.43685114  0.00818875
   0.50409091  0.49761905  0.1425851   0.37869121]
 [ 0.03202085  0.51590909  0.51690476  0.47285927  0.49520978  0.
   0.5         0.65357143  0.          0.39520499]
 [ 0.          0.5         0.57071429  0.          0.36326979  0.
   0.5         0.73690476  0.          0.42419562]
 [ 0.29310894  0.63743687  0.67809524  0.5211216   0.60981276  0.53124045
   0.76545455  0.76571429  0.76084341  0.76391509]
 [ 0.          0.5         0.53690476  0.          0.34929435  0.00307692
   0.50138889  0.56071429  0.03191424  0.36744868]
 [ 0.          0.5         0.69285714  0.          0.40921569  0.5007556
   0.75        0.75119048  0.74237882  0.74719088]
 [ 0.          0.5         0.63928571  0.          0.38991087  0.15599436
   0.56869658  0.65357143  0.34269813  0.51170315]
 [ 0.          0.5         0.62452381  0.          0.38435829  0.
   0.5         0.54642857  0.          0.35327163]
 [ 0.          0.5         0.60952381  0.          0.37867647  0.
   0.5         0.66333333  0.          0.39875223]]
SVM mean:
[0.09976657 0.54835611 0.65449735 0.17728351 0.46476797 0.11499222
 0.5556898  0.64286596 0.21420708 0.47430176]
---------------------------
---------------------------
GBM performance:
[[ 0.45990231  0.72717172  0.73571429  0.7103987   0.72419047  0.1815656
   0.57395833  0.77595238  0.35512686  0.56397684]
 [ 0.31924775  0.6609596   0.65904762  0.6502066   0.65340838  0.25109942
   0.61332418  0.68285714  0.49068283  0.5891409 ]
 [ 0.45838623  0.71415598  0.76166667  0.6652731   0.71549668  0.45481686
   0.72727273  0.72714286  0.71184408  0.72057742]
 [ 0.34170787  0.67075758  0.67285714  0.65854984  0.66594149  0.42700463
   0.71191919  0.71738095  0.69581677  0.71022502]
 [ 0.25344974  0.61623932  0.67309524  0.53040567  0.59489066  0.15902368
   0.57909091  0.57952381  0.54245317  0.56213732]
 [ 0.54085786  0.74166667  0.82547619  0.69572305  0.76168009  0.38083885
   0.68445513  0.72761905  0.63328359  0.68635738]
 [ 0.15570135  0.56190476  0.72190476  0.30457085  0.52498865  0.18339229
   0.5797619   0.73214286  0.27548224  0.53266409]
 [ 0.26057313  0.62954545  0.63285714  0.59855827  0.61647195  0.42695202
   0.70924242  0.72190476  0.69602728  0.7101356 ]
 [-0.03809789  0.48846154  0.56595238  0.23102602  0.43146251  0.37780389
   0.6767094   0.72761905  0.6037547   0.66145992]
 [ 0.42435688  0.7029304   0.74214286  0.67557557  0.70683742  0.30096597
   0.63605769  0.70809524  0.52337436  0.61480126]
 [ 0.01499111  0.50694444  0.56071429  0.31808045  0.4541364   0.21241793
   0.57733586  0.61452381  0.4942674   0.55380002]
 [-0.00453037  0.49773352  0.62428571  0.10946544  0.41661929  0.01098052
   0.51555556  0.53642857  0.3339558   0.46179288]
 [ 0.10826224  0.54377289  0.68761905  0.27845727  0.49692662  0.11609858
   0.54766484  0.67333333  0.28766919  0.49727325]
 [ 0.30670126  0.64294872  0.69309524  0.57192262  0.62949481  0.24154671
   0.60695971  0.70785714  0.50869028  0.60101806]
 [ 0.6156778   0.81137821  0.8197619   0.81161134  0.81108922  0.52570848
   0.75934829  0.77571429  0.7430526   0.75813034]
 [ 0.00769663  0.50383987  0.83452381  0.04850713  0.47112862  0.41746331
   0.69439103  0.72690476  0.66437565  0.69490625]
 [ 0.0169837   0.50619048  0.69309524  0.08026536  0.43478928  0.43772977
   0.7165404   0.72595238  0.70141995  0.71407445]
 [ 0.24827534  0.61085165  0.69761905  0.52460076  0.60401782  0.10067043
   0.54267399  0.64928571  0.28909459  0.48877845]
 [ 0.          0.5         0.77595238  0.          0.43685114  0.08705605
   0.54363636  0.54190476  0.50690997  0.52522892]
 [ 0.10531249  0.54363636  0.54095238  0.48032236  0.52150622  0.28175223
   0.62932692  0.71595238  0.52064917  0.61379379]
 [ 0.01406078  0.50814394  0.56047619  0.23162457  0.43629722 -0.01666667
   0.49333333  0.72690476  0.          0.42073242]
 [ 0.34668828  0.66622475  0.69333333  0.62080892  0.65819309  0.48668821
   0.74909091  0.74690476  0.73043694  0.74176475]
 [ 0.02490629  0.52156566  0.54285714  0.41407335  0.48685506  0.40553826
   0.70075758  0.71190476  0.68184133  0.69618361]
 [ 0.21057152  0.58619048  0.73190476  0.41290281  0.56806512  0.42232771
   0.71090909  0.71190476  0.70200616  0.70777184]
 [-0.00802777  0.49711538  0.62452381  0.06932365  0.41444794  0.29699755
   0.64391026  0.69761905  0.55456315  0.632142  ]
 [ 0.21716727  0.58882784  0.67880952  0.42988809  0.55975655  0.31862262
   0.66525253  0.68238095  0.63321925  0.65866935]
 [ 0.25639375  0.61410256  0.68738095  0.49565469  0.58832442  0.18796783
   0.57619048  0.71261905  0.35236736  0.54151007]]
GBM mean:
[0.2095265  0.59863925 0.68287478 0.43028876 0.56977286 0.28430973
 0.63572848 0.69475309 0.52712462 0.61700171]
---------------------------
---------------------------
BDDAE performance:
[[0. 0. 0. 0. 0. 0. 0. 0. 0. 0.]
 [0. 0. 0. 0. 0. 0. 0. 0. 0. 0.]
 [0. 0. 0. 0. 0. 0. 0. 0. 0. 0.]
 [0. 0. 0. 0. 0. 0. 0. 0. 0. 0.]
 [0. 0. 0. 0. 0. 0. 0. 0. 0. 0.]
 [0. 0. 0. 0. 0. 0. 0. 0. 0. 0.]
 [0. 0. 0. 0. 0. 0. 0. 0. 0. 0.]
 [0. 0. 0. 0. 0. 0. 0. 0. 0. 0.]
 [0. 0. 0. 0. 0. 0. 0. 0. 0. 0.]
 [0. 0. 0. 0. 0. 0. 0. 0. 0. 0.]
 [0. 0. 0. 0. 0. 0. 0. 0. 0. 0.]
 [0. 0. 0. 0. 0. 0. 0. 0. 0. 0.]
 [0. 0. 0. 0. 0. 0. 0. 0. 0. 0.]
 [0. 0. 0. 0. 0. 0. 0. 0. 0. 0.]
 [0. 0. 0. 0. 0. 0. 0. 0. 0. 0.]
 [0. 0. 0. 0. 0. 0. 0. 0. 0. 0.]
 [0. 0. 0. 0. 0. 0. 0. 0. 0. 0.]
 [0. 0. 0. 0. 0. 0. 0. 0. 0. 0.]
 [0. 0. 0. 0. 0. 0. 0. 0. 0. 0.]
 [0. 0. 0. 0. 0. 0. 0. 0. 0. 0.]
 [0. 0. 0. 0. 0. 0. 0. 0. 0. 0.]
 [0. 0. 0. 0. 0. 0. 0. 0. 0. 0.]
 [0. 0. 0. 0. 0. 0. 0. 0. 0. 0.]
 [0. 0. 0. 0. 0. 0. 0. 0. 0. 0.]
 [0. 0. 0. 0. 0. 0. 0. 0. 0. 0.]
 [0. 0. 0. 0. 0. 0. 0. 0. 0. 0.]
 [0. 0. 0. 0. 0. 0. 0. 0. 0. 0.]]
BDDAE mean:
[0. 0. 0. 0. 0. 0. 0. 0. 0. 0.]
---------------------------
---------------------------
DUMMY performance:
[[0.         0.5        0.53690476 0.         0.34929435 0.
  0.5        0.75119048 0.         0.42892535]
 [0.         0.5        0.55119048 0.         0.35526026 0.
  0.5        0.61952381 0.         0.38246435]
 [0.         0.5        0.6047619  0.         0.37680481 0.
  0.5        0.50714286 0.         0.33642473]
 [0.         0.5        0.51690476 0.         0.3406922  0.
  0.5        0.53690476 0.         0.34929435]
 [0.         0.5        0.5952381  0.         0.3730615  0.
  0.5        0.50238095 0.         0.3343078 ]
 [0.         0.5        0.68333333 0.         0.40588235 0.
  0.5        0.60952381 0.         0.37867647]
 [0.         0.5        0.68809524 0.         0.40754902 0.
  0.5        0.68809524 0.         0.40754902]
 [0.         0.5        0.51190476 0.         0.33854167 0.
  0.5        0.55119048 0.         0.35526026]
 [0.         0.5        0.6        0.         0.37493316 0.
  0.5        0.5952381  0.         0.3730615 ]
 [0.         0.5        0.61452381 0.         0.38057041 0.
  0.5        0.60952381 0.         0.37867647]
 [0.         0.5        0.58071429 0.         0.36730205 0.
  0.5        0.57071429 0.         0.36326979]
 [0.         0.5        0.63928571 0.         0.38991087 0.
  0.5        0.53690476 0.         0.34929435]
 [0.         0.5        0.66833333 0.         0.40053476 0.
  0.5        0.64880952 0.         0.39344029]
 [0.         0.5        0.5952381  0.         0.3730615  0.
  0.5        0.66333333 0.         0.39875223]
 [0.         0.5        0.59047619 0.         0.37118984 0.
  0.5        0.59047619 0.         0.37118984]
 [0.         0.5        0.84404762 0.         0.45766495 0.
  0.5        0.5952381  0.         0.3730615 ]
 [0.         0.5        0.69761905 0.         0.41088235 0.
  0.5        0.54642857 0.         0.35327163]
 [0.         0.5        0.65357143 0.         0.39520499 0.
  0.5        0.62952381 0.         0.38625223]
 [0.         0.5        0.77595238 0.         0.43685114 0.
  0.5        0.48809524 0.         0.32795699]
 [0.         0.5        0.50714286 0.         0.33642473 0.
  0.5        0.65357143 0.         0.39520499]
 [0.         0.5        0.57071429 0.         0.36326979 0.
  0.5        0.73690476 0.         0.42419562]
 [0.         0.5        0.56571429 0.         0.36125367 0.
  0.5        0.51190476 0.         0.33854167]
 [0.         0.5        0.53690476 0.         0.34929435 0.
  0.5        0.56071429 0.         0.35923754]
 [0.         0.5        0.69285714 0.         0.40921569 0.
  0.5        0.50238095 0.         0.3343078 ]
 [0.         0.5        0.63928571 0.         0.38991087 0.
  0.5        0.6047619  0.         0.37680481]
 [0.         0.5        0.62452381 0.         0.38435829 0.
  0.5        0.54642857 0.         0.35327163]
 [0.         0.5        0.60952381 0.         0.37867647 0.
  0.5        0.66333333 0.         0.39875223]]
DUMMY mean:
[0.         0.5        0.61832451 0.         0.38065171 0.
 0.5        0.59334215 0.         0.37116465]
---------------------------
Current folder: C:\Users\Javier\Dropbox\c_sldl_3_1_2
-------------------------------------
----- RESULTS ------
-------------------------------------
Window size (sec):  8.0
step (sec):  6.0
overlap:  True
perc. of overlap:  25.0
Number of windows / instances:  205
---------------------------
ALG Means: 
-rows: alg : KNN = 0; DT = 1; RF = 2; SVM = 3; GBM = 4; BDDAE = 5; DUMMY = 5
columns:
'val_cohen','val_uar', 'val_acc', 'val_gm',  'val_f1',  'aro_cohen','aro_uar', 'aro_acc', 'aro_gm',  'aro_f1'
-------------------------------------------------------------
  v_c   v_u   v_a   v_g   v_f1  a_c   a_u   a_a   a_g   a_f1
[[0.259 0.626 0.677 0.571 0.622 0.284 0.641 0.669 0.61  0.637]
 [0.206 0.606 0.636 0.571 0.599 0.288 0.642 0.661 0.619 0.636]
 [0.236 0.615 0.662 0.581 0.61  0.28  0.642 0.67  0.61  0.638]
 [0.1   0.548 0.654 0.177 0.465 0.115 0.556 0.643 0.214 0.474]
 [0.21  0.599 0.683 0.43  0.57  0.284 0.636 0.695 0.527 0.617]
 [0.    0.    0.    0.    0.    0.    0.    0.    0.    0.   ]
 [0.    0.5   0.618 0.    0.381 0.    0.5   0.593 0.    0.371]]
Elapsed time: 5.273543429374695 minutes
Elapsed time: 0.08789239048957825 hours
