2024-03-09 11:10:26.578283: I tensorflow/core/util/port.cc:113] oneDNN custom operations are on. You may see slightly different numerical results due to floating-point round-off errors from different computation orders. To turn them off, set the environment variable `TF_ENABLE_ONEDNN_OPTS=0`.
2024-03-09 11:10:27.282026: I tensorflow/core/util/port.cc:113] oneDNN custom operations are on. You may see slightly different numerical results due to floating-point round-off errors from different computation orders. To turn them off, set the environment variable `TF_ENABLE_ONEDNN_OPTS=0`.
2024-03-09 11:10:28.693056: I tensorflow/core/platform/cpu_feature_guard.cc:210] This TensorFlow binary is optimized to use available CPU instructions in performance-critical operations.
To enable the following instructions: AVX2 FMA, in other operations, rebuild TensorFlow with the appropriate compiler flags.
    
    
-------------------------------
participant:  1
-------------------------------
    
    
participant:  1
corriendo en PC gamer:
Window size (sec):  8.0
step (sec):  6.0
overlap:  True
perc. of overlap:  25.0
Nearest multiple of 16 to 8000 is: 8000
Nearest multiple of 16 to 6000 is: 6000
['gsr_chunks', 'ppg_chunks', 'val_chunks', 'aro_chunks', 'time_chunks', 'tag_chunks', 'video']

Class=0, n=80 (39.024%)
Class=1, n=125 (60.976%)
------------- Evaluating model --------------
------------- Evaluating model --------------
------------- Evaluating model --------------
------------- Evaluating model --------------
------------- Evaluating model --------------
arousal and valece = ok
------------- Evaluating model --------------
-------------------------------------
-------------------------------------
participant:  30
-------------------------------------
----- RESULTS ------
-------------------------------------
Window size (sec):  8.0
step (sec):  6.0
overlap:  True
perc. of overlap:  25.0
Number of windows / instances:  205
-rows: alg : KNN = 0; DT = 1; RF = 2; SVM = 3; GBM = 4; BDDAE = 5; DUMMY = 5
columns:
'val_cohen','val_uar', 'val_acc', 'val_gm',  'val_f1',  'aro_cohen','aro_uar', 'aro_acc', 'aro_gm',  'aro_f1'
-------------------------------------------------------------
  v_c   v_u   v_a   v_g   v_f1  a_c   a_u   a_a   a_g   a_f1
[[0.239 0.614 0.659 0.562 0.608 0.246 0.634 0.654 0.615 0.62 ]
 [0.409 0.705 0.717 0.713 0.699 0.5   0.775 0.795 0.716 0.768]
 [0.372 0.649 0.684 0.596 0.65  0.352 0.662 0.722 0.666 0.668]
 [0.    0.5   0.61  0.    0.379 0.    0.5   0.663 0.    0.399]
 [0.309 0.639 0.707 0.54  0.623 0.195 0.58  0.708 0.401 0.556]
 [0.    0.    0.    0.    0.    0.    0.    0.    0.    0.   ]
 [0.    0.5   0.61  0.    0.379 0.    0.5   0.663 0.    0.399]]
participant performance loaded
    
    
-------------------------------
LAST participant's saved data: 
30
-------------------------------
    
    
---------------------------
KNN performance:
[[ 0.25857336  0.62939394  0.6297619   0.62337326  0.62601938  0.30662177
   0.654375    0.75619048  0.59423088  0.64616712]
 [ 0.20491016  0.60426768  0.60571429  0.5920253   0.59748923  0.40739441
   0.70011447  0.72333333  0.68016178  0.69866053]
 [ 0.26309797  0.62916667  0.64285714  0.61498138  0.62805363  0.43133158
   0.71611111  0.71809524  0.70298788  0.71051346]
 [ 0.37333947  0.68262626  0.69809524  0.65649903  0.67792545  0.10403879
   0.54428571  0.69761905  0.28728834  0.52473326]
 [ 0.42539971  0.70122863  0.74261905  0.66536763  0.70455855  0.28584176
   0.64272727  0.64428571  0.61780091  0.63127955]
 [ 0.30701943  0.65363636  0.65452381  0.6414836   0.64807668  0.36713463
   0.68217172  0.68714286  0.67780392  0.68259361]
 [ 0.32125145  0.65844017  0.68285714  0.62688899  0.65214421  0.15145719
   0.57590909  0.5752381   0.57090031  0.57300486]
 [ 0.54321091  0.75238095  0.81571429  0.72702016  0.76865601  0.29378742
   0.64535256  0.66880952  0.62233673  0.64051022]
 [ 0.23333149  0.60666667  0.70833333  0.48635408  0.60534305  0.30213205
   0.64547619  0.72190476  0.5758248   0.6456398 ]
 [ 0.3423436   0.67045455  0.67261905  0.66075096  0.66748631  0.25995412
   0.63015152  0.63547619  0.61684072  0.62488383]
 [ 0.04465717  0.52398504  0.56238095  0.44970069  0.51149744  0.38500516
   0.68536325  0.71833333  0.65575149  0.68548348]
 [ 0.64314292  0.82225275  0.83452381  0.8118656   0.81919666  0.3342652
   0.66794872  0.68357143  0.66012941  0.66590644]
 [ 0.17482886  0.58743687  0.59619048  0.57893116  0.58432131  0.15060593
   0.57474747  0.5902381   0.55453133  0.56993701]
 [ 0.18551586  0.58502747  0.64857143  0.52560616  0.58122024  0.04617998
   0.52227273  0.52642857  0.50423611  0.51496154]
 [ 0.09226278  0.54542125  0.63047619  0.44246765  0.53352631  0.10751483
   0.55453297  0.59452381  0.49661013  0.54661399]
 [ 0.33305008  0.66474359  0.68761905  0.64328219  0.66212888  0.25658115
   0.61886447  0.68452381  0.57550832  0.62077881]
 [ 0.60537972  0.80651709  0.80928571  0.79540994  0.79906615  0.21498381
   0.60512821  0.6247619   0.59216522  0.60531748]
 [-0.01700443  0.49379085  0.8102381   0.0560112   0.46703251  0.3678712
   0.68525641  0.69285714  0.67748527  0.68093496]
 [ 0.05153335  0.5252381   0.63928571  0.35046211  0.50421511  0.36407121
   0.68159091  0.68738095  0.67022587  0.6784372 ]
 [ 0.2429754   0.61792582  0.66761905  0.58026473  0.61431681  0.25183684
   0.62293956  0.66357143  0.58458277  0.61842621]
 [ 0.17946816  0.57958333  0.7702381   0.38189564  0.57650231 -0.00191437
   0.49909091  0.49761905  0.48751197  0.49271978]
 [-0.07530511  0.46272727  0.46238095  0.45374234  0.45805937  0.20523754
   0.60254121  0.65261905  0.55944769  0.59545881]
 [-0.04467624  0.4802399   0.49809524  0.42166312  0.46767781 -0.00382128
   0.49583333  0.66952381  0.26288547  0.48363991]
 [ 0.10452103  0.55131313  0.55214286  0.53308432  0.5425754   0.17281165
   0.58590909  0.59428571  0.56818205  0.58016155]
 [ 0.31060855  0.65378788  0.66357143  0.63816335  0.64970186  0.46308473
   0.73181818  0.73142857  0.7297802   0.73073327]
 [ 0.1588892   0.57959596  0.58571429  0.56020268  0.57252081  0.25047088
   0.62638889  0.62952381  0.60820182  0.6172579 ]
 [ 0.41768816  0.69738095  0.775       0.64949842  0.70104072  0.44004287
   0.71954545  0.72047619  0.70861354  0.71566801]
 [ 0.20210583  0.5981456   0.64928571  0.54519689  0.59055174  0.36440999
   0.68060897  0.70714286  0.64934122  0.67380928]
 [ 0.2592153   0.6246337   0.66880952  0.58473452  0.62102888  0.27321752
   0.63315657  0.64833333  0.60917018  0.62929367]
 [ 0.23912984  0.61394231  0.65880952  0.56249898  0.6076846   0.24632883
   0.63397436  0.65380952  0.6152105   0.61994613]]
KNN mean:
[0.24601547 0.62006502 0.66744444 0.56198087 0.61465391 0.25994925
 0.62880621 0.65996825 0.59052489 0.62344906]
---------------------------
---------------------------
DT performance:
[[ 0.34434516  0.6620202   0.66309524  0.66843175  0.65906159  0.38940884
   0.71875     0.79547619  0.69309787  0.72001718]
 [ 0.23499545  0.63590909  0.64        0.60935611  0.62838665  0.40812017
   0.68644689  0.71238095  0.71036005  0.68408262]
 [ 0.30601192  0.60637626  0.61309524  0.57188537  0.60081368  0.45442395
   0.71777778  0.71785714  0.73026144  0.71546824]
 [ 0.24643696  0.63181818  0.63452381  0.61651044  0.62036925  0.03040764
   0.49642857  0.60071429  0.42848393  0.48958804]
 [ 0.32664866  0.67056624  0.68714286  0.65845557  0.66885987  0.38404617
   0.71727273  0.71785714  0.69901369  0.71345152]
 [ 0.31951995  0.63969697  0.6402381   0.66458012  0.63533612  0.49909288
   0.74151515  0.74238095  0.7188292   0.73793818]
 [ 0.30674323  0.6571047   0.65928571  0.65822588  0.65214902  0.03214681
   0.53772727  0.53595238  0.50246688  0.53340453]
 [ 0.56373109  0.7547619   0.80047619  0.73836656  0.76240473  0.38831493
   0.70512821  0.71214286  0.7061951   0.69920352]
 [ 0.2810733   0.61238095  0.655       0.60524014  0.610663    0.19203419
   0.60333333  0.65404762  0.53449629  0.59330086]
 [ 0.38295834  0.67727273  0.67785714  0.65461289  0.67700749  0.22132386
   0.61691919  0.62047619  0.59484347  0.61044931]
 [-0.07529056  0.46282051  0.47309524  0.43609807  0.450566    0.38954863
   0.70400641  0.71261905  0.66731652  0.70293754]
 [ 0.54231221  0.76664377  0.78071429  0.74529317  0.76188898  0.32211595
   0.65224359  0.66809524  0.65717332  0.64751766]
 [ 0.09530164  0.53137626  0.53595238  0.5215863   0.52099907  0.17172737
   0.58125     0.59119048  0.53213853  0.57189396]
 [ 0.0510444   0.57259615  0.6         0.47898492  0.5640897   0.08268575
   0.52515152  0.52166667  0.49268837  0.51449297]
 [ 0.35357864  0.66776557  0.71238095  0.61607518  0.66540071  0.24981162
   0.57870879  0.6097619   0.57303825  0.57465452]
 [ 0.21625393  0.61955128  0.63333333  0.62501656  0.61486668  0.23176161
   0.60494505  0.65071429  0.55712646  0.59357498]
 [ 0.60630253  0.77729701  0.78619048  0.77715546  0.77144203  0.36210317
   0.67248932  0.68380952  0.65548263  0.66636419]
 [ 0.0866828   0.60743464  0.77642857  0.39216957  0.566299    0.27126798
   0.64524573  0.65809524  0.65484018  0.64224569]
 [ 0.18963449  0.58952381  0.64785714  0.54113625  0.5792382   0.38965383
   0.6730303   0.67214286  0.63382067  0.66461287]
 [ 0.27075628  0.62458791  0.64880952  0.61498832  0.61820085  0.11669988
   0.59363553  0.62928571  0.50988888  0.58455355]
 [-0.0826253   0.48875     0.62904762  0.33540035  0.490166   -0.06335675
   0.49727273  0.49761905  0.4495536   0.4944752 ]
 [ 0.07025499  0.54409091  0.54642857  0.52589904  0.53721022  0.27046821
   0.62692308  0.67166667  0.58576812  0.62668112]
 [ 0.09455038  0.55820707  0.56        0.54767514  0.54966477  0.11697111
   0.52270833  0.63047619  0.4340228   0.51664829]
 [ 0.14273185  0.59207071  0.59142857  0.58407683  0.58270675  0.35649514
   0.64888889  0.65333333  0.61619666  0.64259802]
 [ 0.24085492  0.63181818  0.6297619   0.6110562   0.62328732  0.3769249
   0.70272727  0.70238095  0.6731582   0.69875626]
 [ 0.15168957  0.59737374  0.59595238  0.59140423  0.59071269  0.38521168
   0.67108586  0.67404762  0.6303195   0.6692947 ]
 [ 0.31012943  0.64357143  0.69690476  0.60616649  0.63877282  0.46058059
   0.74545455  0.74547619  0.77101437  0.74453824]
 [ 0.16599855  0.56710165  0.60619048  0.55008487  0.56220717  0.43976506
   0.72077991  0.73285714  0.70117566  0.71775071]
 [ 0.1372955   0.56364469  0.59047619  0.55378373  0.55137142  0.15017203
   0.54916667  0.55190476  0.55565687  0.538176  ]
 [ 0.40937647  0.70544872  0.71690476  0.71251311  0.69912025  0.50029698
   0.77490842  0.79547619  0.71601201  0.76825016]]
DT mean:
[0.24297656 0.62198604 0.64761905 0.59374095 0.61510873 0.28600747
 0.64106404 0.66206349 0.61281465 0.63589735]
---------------------------
---------------------------
RF performance:
[[ 0.41061369  0.63308081  0.63809524  0.64937118  0.62560547  0.42137299
   0.699375    0.785       0.65256392  0.69854891]
 [ 0.16933174  0.62820707  0.63452381  0.65615506  0.62432667  0.37227445
   0.68729396  0.71261905  0.67389599  0.68683345]
 [ 0.35490376  0.62708333  0.63309524  0.62376609  0.62307397  0.46369565
   0.69646465  0.69904762  0.69225578  0.68949725]
 [ 0.31424858  0.64936869  0.65357143  0.66444816  0.64470917 -0.01036015
   0.55142857  0.65380952  0.42043292  0.54565093]
 [ 0.43910201  0.67516026  0.70214286  0.7135374   0.67564395  0.32614866
   0.69181818  0.69285714  0.63347921  0.6898842 ]
 [ 0.40494364  0.62616162  0.62428571  0.65335366  0.62000314  0.42713473
   0.70116162  0.70666667  0.70395524  0.69840789]
 [ 0.41239037  0.70235043  0.72547619  0.6779016   0.70405046  0.04314182
   0.52318182  0.52190476  0.5463233   0.51991718]
 [ 0.49348914  0.72261905  0.77119048  0.68852185  0.72469312  0.39722626
   0.72179487  0.73261905  0.68949293  0.71827927]
 [ 0.23615688  0.57666667  0.65452381  0.59757993  0.56639354  0.19078531
   0.63261905  0.68761905  0.54135975  0.62299821]
 [ 0.28652153  0.635       0.6352381   0.67414641  0.63166682  0.1948937
   0.64275253  0.64380952  0.60801218  0.6339704 ]
 [-0.0643925   0.48504274  0.51190476  0.42794811  0.47798959  0.36077073
   0.67938034  0.70261905  0.67038788  0.67701867]
 [ 0.59776108  0.7904304   0.80547619  0.78425693  0.7897473   0.38070052
   0.61682692  0.63880952  0.63894472  0.60847471]
 [ 0.15511112  0.52765152  0.54642857  0.58858527  0.51879139  0.19527706
   0.55997475  0.5802381   0.5984503   0.54575527]
 [ 0.09180492  0.5209478   0.58166667  0.51155001  0.51560277 -0.02186243
   0.4760101   0.47809524  0.49115378  0.45959911]
 [ 0.27903051  0.621337    0.68714286  0.51605554  0.62563273  0.19726039
   0.60851648  0.64428571  0.52376447  0.6098768 ]
 [ 0.30926079  0.68488248  0.69738095  0.60718594  0.67620441  0.24295304
   0.64478022  0.69928571  0.65021768  0.64583294]
 [ 0.61342897  0.7991453   0.7952381   0.77395715  0.78768117  0.35760551
   0.63151709  0.64880952  0.69470006  0.62551535]
 [ 0.08976059  0.56642157  0.80047619  0.27403106  0.5664128   0.4805499
   0.6911859   0.70666667  0.68042384  0.6903676 ]
 [ 0.10614     0.58619048  0.68238095  0.52189011  0.58059302  0.37918489
   0.68068182  0.68761905  0.67074758  0.67683104]
 [ 0.20863     0.65116758  0.69309524  0.58179528  0.64100091 -0.01030548
   0.58543956  0.63380952  0.49170927  0.58063304]
 [ 0.05180032  0.48875     0.70738095  0.38782895  0.46604618  0.02050008
   0.51909091  0.51785714  0.52429774  0.51354578]
 [ 0.05332382  0.53727273  0.53714286  0.50651053  0.52571019  0.33498875
   0.66668956  0.70309524  0.57615011  0.6646778 ]
 [ 0.10015845  0.53686869  0.55642857  0.47248912  0.53084804  0.03755198
   0.55916667  0.68428571  0.28463141  0.55089372]
 [ 0.21282114  0.62808081  0.63047619  0.64798724  0.62326196  0.2509403
   0.62782828  0.62809524  0.69176664  0.62158257]
 [ 0.32137975  0.67645202  0.68380952  0.62095123  0.67246632  0.44336765
   0.73772727  0.73619048  0.72689475  0.73345455]
 [ 0.11088032  0.59489899  0.59595238  0.57437224  0.59282596  0.31619953
   0.6145202   0.63        0.62084106  0.60616466]
 [ 0.29947312  0.65261905  0.72690476  0.68182611  0.65439771  0.60513479
   0.72454545  0.72547619  0.75246932  0.72193588]
 [ 0.13951684  0.54711538  0.6         0.50261006  0.54233762  0.30572228
   0.70683761  0.71809524  0.71327304  0.70168571]
 [ 0.10656628  0.61879579  0.64857143  0.5531177   0.61283747  0.22963494
   0.61588384  0.62452381  0.61552572  0.60939861]
 [ 0.37209007  0.64855769  0.68357143  0.59576677  0.64962753  0.35164306
   0.66181319  0.72214286  0.66622489  0.66771689]]
RF mean:
[0.2558749  0.62127753 0.66145238 0.59098322 0.61633938 0.2761377
 0.63854355 0.66486508 0.61481152 0.63383161]
---------------------------
---------------------------
SVM performance:
[[ 0.05287078  0.52505051  0.55642857  0.24321607  0.42616121  0.
   0.5         0.75119048  0.          0.42892535]
 [ 0.          0.5         0.55119048  0.          0.35526026  0.
   0.5         0.61952381  0.          0.38246435]
 [ 0.36567814  0.67310606  0.70571429  0.61754582  0.66431287  0.42344006
   0.71257576  0.71261905  0.70495895  0.70892534]
 [ 0.31196453  0.65063131  0.67285714  0.59718643  0.63634344  0.
   0.5         0.71714286  0.          0.41757703]
 [ 0.3796152   0.67489316  0.73309524  0.59866321  0.66720458  0.41500896
   0.70681818  0.70880952  0.67596184  0.69383609]
 [ 0.28044639  0.63823232  0.6447619   0.58138086  0.61442318  0.28482816
   0.6360101   0.66309524  0.51776853  0.59241797]
 [ 0.04176829  0.51805556  0.61        0.10404401  0.40883944  0.21882547
   0.61        0.60880952  0.57591111  0.59299564]
 [ 0.48775701  0.71190476  0.81571429  0.62703083  0.72315185  0.12239629
   0.55240385  0.64809524  0.25410446  0.47902342]
 [ 0.          0.5         0.68809524  0.          0.40754902  0.
   0.5         0.68809524  0.          0.40754902]
 [ 0.18086357  0.59        0.5947619   0.553072    0.57428191  0.04296157
   0.51994949  0.56119048  0.25671725  0.43382874]
 [ 0.          0.5         0.6         0.          0.37493316  0.27622118
   0.62462607  0.69333333  0.46936654  0.59105356]
 [ 0.68845499  0.85119048  0.84952381  0.84890648  0.84327399  0.0150289
   0.50625     0.61428571  0.03535534  0.39094623]
 [ 0.          0.5         0.58071429  0.          0.36730205  0.
   0.5         0.57071429  0.          0.36326979]
 [ 0.          0.5         0.63928571  0.          0.38991087  0.
   0.5         0.53690476  0.          0.34929435]
 [ 0.          0.5         0.66833333  0.          0.40053476  0.
   0.5         0.64880952  0.          0.39344029]
 [ 0.          0.5         0.5952381   0.          0.3730615   0.
   0.5         0.66333333  0.          0.39875223]
 [ 0.62080801  0.80827991  0.81904762  0.79621975  0.80696963  0.
   0.5         0.59047619  0.          0.37118984]
 [ 0.          0.5         0.84404762  0.          0.45766495  0.
   0.5         0.5952381   0.          0.3730615 ]
 [ 0.          0.5         0.69761905  0.          0.41088235  0.40864188
   0.70136364  0.71214286  0.6855926   0.69931833]
 [ 0.          0.5         0.65357143  0.          0.39520499  0.
   0.5         0.62952381  0.          0.38625223]
 [ 0.          0.5         0.77595238  0.          0.43685114  0.00513331
   0.50272727  0.49761905  0.14811225  0.38138121]
 [-0.0384507   0.48090909  0.48738095  0.05688815  0.34000322  0.
   0.5         0.65357143  0.          0.39520499]
 [ 0.          0.5         0.57071429  0.          0.36326979  0.
   0.5         0.73690476  0.          0.42419562]
 [ 0.          0.5         0.52690476  0.          0.34499328  0.01975782
   0.50896465  0.55595238  0.11380712  0.39187226]
 [ 0.29310894  0.63743687  0.67809524  0.5211216   0.60981276  0.540912
   0.77045455  0.77047619  0.76517155  0.76852399]
 [ 0.          0.5         0.53690476  0.          0.34929435  0.00615385
   0.50277778  0.56071429  0.06382847  0.37565982]
 [ 0.          0.5         0.69285714  0.          0.40921569  0.47974857
   0.74        0.74071429  0.7296236   0.73569442]
 [ 0.          0.5         0.63928571  0.          0.38991087  0.03313895
   0.51452991  0.60928571  0.14761495  0.42193575]
 [ 0.          0.5         0.62452381  0.          0.38435829  0.07389166
   0.53378788  0.57547619  0.21054531  0.42559102]
 [ 0.          0.5         0.60952381  0.          0.37867647  0.
   0.5         0.66333333  0.          0.39875223]]
SVM mean:
[0.12216284 0.55865633 0.65540476 0.20484251 0.4767884  0.11220295
 0.55477464 0.64324603 0.21181466 0.47243109]
---------------------------
---------------------------
GBM performance:
[[ 0.43058794  0.71353535  0.72119048  0.69104681  0.70949708  0.40664307
   0.66666667  0.835       0.52859387  0.68173703]
 [ 0.2769656   0.64330808  0.645       0.61657011  0.63411427  0.3230215
   0.64899267  0.71738095  0.53448676  0.63237376]
 [ 0.41569845  0.69431818  0.72071429  0.64028118  0.6821408   0.51285237
   0.75409091  0.76119048  0.73202187  0.74834881]
 [ 0.3798528   0.6835101   0.70309524  0.64901537  0.67672512  0.00771465
   0.49452381  0.70214286  0.04082483  0.42614082]
 [ 0.38900786  0.67355769  0.73190476  0.60199819  0.66854822  0.50173257
   0.75090909  0.75095238  0.73152478  0.74242599]
 [ 0.25499057  0.62722222  0.62833333  0.62110137  0.62187865  0.46720209
   0.73156566  0.73714286  0.72128743  0.73012777]
 [ 0.49831797  0.73263889  0.7752381   0.69023342  0.73714466  0.12281373
   0.56636364  0.565       0.52977471  0.55075062]
 [ 0.50424152  0.71666667  0.8152381   0.64914617  0.73304264  0.4232776
   0.69695513  0.74238095  0.67017783  0.70316101]
 [ 0.12342034  0.54761905  0.71261905  0.2739389   0.50431224  0.01196172
   0.50595238  0.68333333  0.05345225  0.42460784]
 [ 0.28337583  0.63636364  0.63857143  0.61456248  0.62548921  0.31071977
   0.65146465  0.66833333  0.62379813  0.64733651]
 [ 0.01619438  0.50753205  0.58547619  0.26567683  0.4468144   0.37440855
   0.67601496  0.72261905  0.61090417  0.6675814 ]
 [ 0.52962314  0.75943223  0.79047619  0.72742399  0.75618097  0.334302
   0.65        0.72214286  0.54416373  0.63414108]
 [-0.06735168  0.46344697  0.52190476  0.21036652  0.39832678  0.17307357
   0.58459596  0.63357143  0.42365509  0.54357541]
 [ 0.07838918  0.53228022  0.64928571  0.24654692  0.47352788 -0.01369033
   0.49919192  0.51714286  0.41098506  0.46734968]
 [ 0.11966446  0.54826007  0.68785714  0.30271075  0.508823    0.09213094
   0.54381868  0.66833333  0.3074716   0.4968473 ]
 [ 0.22730026  0.60443376  0.66309524  0.5080276   0.58580596  0.12715784
   0.55604396  0.67333333  0.37102696  0.53004214]
 [ 0.60350061  0.80304487  0.8097619   0.7986128   0.79947438  0.55606933
   0.78258547  0.79071429  0.77036497  0.78142367]
 [-0.01593973  0.49150327  0.8297619   0.          0.45333735  0.40997182
   0.69818376  0.72714286  0.67350847  0.69868284]
 [ 0.06989379  0.52666667  0.70761905  0.16191502  0.4662639   0.45342871
   0.72424242  0.73595238  0.70210987  0.72028675]
 [ 0.23707484  0.60425824  0.70238095  0.4862203   0.58823022  0.09352939
   0.53553114  0.64380952  0.29699135  0.48057013]
 [ 0.          0.5         0.77595238  0.          0.43685114  0.11542997
   0.55272727  0.55285714  0.52514982  0.5401538 ]
 [ 0.12107836  0.55636364  0.55547619  0.51310644  0.53479276  0.20948539
   0.59690934  0.69238095  0.43478099  0.57505912]
 [ 0.07015083  0.53352273  0.58404762  0.29403961  0.47266288 -0.02686869
   0.49333333  0.72714286  0.          0.42084829]
 [ 0.07642495  0.53828283  0.54642857  0.49995667  0.52433754  0.43219369
   0.71772727  0.71714286  0.71283408  0.7104942 ]
 [ 0.27222961  0.63005051  0.65904762  0.58000595  0.61955799  0.48557666
   0.73363636  0.73214286  0.7267643   0.72432259]
 [ 0.11053544  0.55287879  0.56738095  0.51040124  0.53954692  0.41422226
   0.6959596   0.70857143  0.67423526  0.69063333]
 [ 0.18163102  0.56952381  0.72214286  0.33118124  0.53814564  0.50000759
   0.75        0.75        0.73618268  0.74855161]
 [ 0.02416262  0.50693681  0.6297619   0.13336202  0.4309189   0.38036524
   0.68376068  0.71761905  0.64519282  0.67869801]
 [ 0.1533456   0.55998168  0.65333333  0.35745164  0.52193266  0.28535881
   0.64267677  0.66404762  0.58009456  0.62693534]
 [ 0.30918069  0.63910256  0.70666667  0.54011181  0.62313807  0.19478601
   0.5797619   0.70785714  0.4010715   0.5559586 ]]
GBM mean:
[0.22245158 0.60320805 0.6813254  0.45050038 0.57705207 0.28929593
 0.63880618 0.6989127  0.52378099 0.61930551]
---------------------------
---------------------------
BDDAE performance:
[[0. 0. 0. 0. 0. 0. 0. 0. 0. 0.]
 [0. 0. 0. 0. 0. 0. 0. 0. 0. 0.]
 [0. 0. 0. 0. 0. 0. 0. 0. 0. 0.]
 [0. 0. 0. 0. 0. 0. 0. 0. 0. 0.]
 [0. 0. 0. 0. 0. 0. 0. 0. 0. 0.]
 [0. 0. 0. 0. 0. 0. 0. 0. 0. 0.]
 [0. 0. 0. 0. 0. 0. 0. 0. 0. 0.]
 [0. 0. 0. 0. 0. 0. 0. 0. 0. 0.]
 [0. 0. 0. 0. 0. 0. 0. 0. 0. 0.]
 [0. 0. 0. 0. 0. 0. 0. 0. 0. 0.]
 [0. 0. 0. 0. 0. 0. 0. 0. 0. 0.]
 [0. 0. 0. 0. 0. 0. 0. 0. 0. 0.]
 [0. 0. 0. 0. 0. 0. 0. 0. 0. 0.]
 [0. 0. 0. 0. 0. 0. 0. 0. 0. 0.]
 [0. 0. 0. 0. 0. 0. 0. 0. 0. 0.]
 [0. 0. 0. 0. 0. 0. 0. 0. 0. 0.]
 [0. 0. 0. 0. 0. 0. 0. 0. 0. 0.]
 [0. 0. 0. 0. 0. 0. 0. 0. 0. 0.]
 [0. 0. 0. 0. 0. 0. 0. 0. 0. 0.]
 [0. 0. 0. 0. 0. 0. 0. 0. 0. 0.]
 [0. 0. 0. 0. 0. 0. 0. 0. 0. 0.]
 [0. 0. 0. 0. 0. 0. 0. 0. 0. 0.]
 [0. 0. 0. 0. 0. 0. 0. 0. 0. 0.]
 [0. 0. 0. 0. 0. 0. 0. 0. 0. 0.]
 [0. 0. 0. 0. 0. 0. 0. 0. 0. 0.]
 [0. 0. 0. 0. 0. 0. 0. 0. 0. 0.]
 [0. 0. 0. 0. 0. 0. 0. 0. 0. 0.]
 [0. 0. 0. 0. 0. 0. 0. 0. 0. 0.]
 [0. 0. 0. 0. 0. 0. 0. 0. 0. 0.]
 [0. 0. 0. 0. 0. 0. 0. 0. 0. 0.]]
BDDAE mean:
[0. 0. 0. 0. 0. 0. 0. 0. 0. 0.]
---------------------------
---------------------------
DUMMY performance:
[[0.         0.5        0.53690476 0.         0.34929435 0.
  0.5        0.75119048 0.         0.42892535]
 [0.         0.5        0.55119048 0.         0.35526026 0.
  0.5        0.61952381 0.         0.38246435]
 [0.         0.5        0.56571429 0.         0.36125367 0.
  0.5        0.52190476 0.         0.34284274]
 [0.         0.5        0.54642857 0.         0.35327163 0.
  0.5        0.71714286 0.         0.41757703]
 [0.         0.5        0.6047619  0.         0.37680481 0.
  0.5        0.50714286 0.         0.33642473]
 [0.         0.5        0.51690476 0.         0.3406922  0.
  0.5        0.53690476 0.         0.34929435]
 [0.         0.5        0.5952381  0.         0.3730615  0.
  0.5        0.50238095 0.         0.3343078 ]
 [0.         0.5        0.68333333 0.         0.40588235 0.
  0.5        0.60952381 0.         0.37867647]
 [0.         0.5        0.68809524 0.         0.40754902 0.
  0.5        0.68809524 0.         0.40754902]
 [0.         0.5        0.51190476 0.         0.33854167 0.
  0.5        0.55119048 0.         0.35526026]
 [0.         0.5        0.6        0.         0.37493316 0.
  0.5        0.5952381  0.         0.3730615 ]
 [0.         0.5        0.61452381 0.         0.38057041 0.
  0.5        0.60952381 0.         0.37867647]
 [0.         0.5        0.58071429 0.         0.36730205 0.
  0.5        0.57071429 0.         0.36326979]
 [0.         0.5        0.63928571 0.         0.38991087 0.
  0.5        0.53690476 0.         0.34929435]
 [0.         0.5        0.66833333 0.         0.40053476 0.
  0.5        0.64880952 0.         0.39344029]
 [0.         0.5        0.5952381  0.         0.3730615  0.
  0.5        0.66333333 0.         0.39875223]
 [0.         0.5        0.59047619 0.         0.37118984 0.
  0.5        0.59047619 0.         0.37118984]
 [0.         0.5        0.84404762 0.         0.45766495 0.
  0.5        0.5952381  0.         0.3730615 ]
 [0.         0.5        0.69761905 0.         0.41088235 0.
  0.5        0.54642857 0.         0.35327163]
 [0.         0.5        0.65357143 0.         0.39520499 0.
  0.5        0.62952381 0.         0.38625223]
 [0.         0.5        0.77595238 0.         0.43685114 0.
  0.5        0.48809524 0.         0.32795699]
 [0.         0.5        0.50714286 0.         0.33642473 0.
  0.5        0.65357143 0.         0.39520499]
 [0.         0.5        0.57071429 0.         0.36326979 0.
  0.5        0.73690476 0.         0.42419562]
 [0.         0.5        0.52690476 0.         0.34499328 0.
  0.5        0.55119048 0.         0.35526026]
 [0.         0.5        0.56571429 0.         0.36125367 0.
  0.5        0.51190476 0.         0.33854167]
 [0.         0.5        0.53690476 0.         0.34929435 0.
  0.5        0.56071429 0.         0.35923754]
 [0.         0.5        0.69285714 0.         0.40921569 0.
  0.5        0.50238095 0.         0.3343078 ]
 [0.         0.5        0.63928571 0.         0.38991087 0.
  0.5        0.6047619  0.         0.37680481]
 [0.         0.5        0.62452381 0.         0.38435829 0.
  0.5        0.54642857 0.         0.35327163]
 [0.         0.5        0.60952381 0.         0.37867647 0.
  0.5        0.66333333 0.         0.39875223]]
DUMMY mean:
[0.         0.5        0.61112698 0.         0.37790382 0.
 0.5        0.59368254 0.         0.37123752]
---------------------------
Current folder: C:\Users\Javier\Dropbox\c_sldl_3_1_2
-------------------------------------
----- RESULTS ------
-------------------------------------
Window size (sec):  8.0
step (sec):  6.0
overlap:  True
perc. of overlap:  25.0
Number of windows / instances:  205
---------------------------
ALG Means: 
-rows: alg : KNN = 0; DT = 1; RF = 2; SVM = 3; GBM = 4; BDDAE = 5; DUMMY = 5
columns:
'val_cohen','val_uar', 'val_acc', 'val_gm',  'val_f1',  'aro_cohen','aro_uar', 'aro_acc', 'aro_gm',  'aro_f1'
-------------------------------------------------------------
  v_c   v_u   v_a   v_g   v_f1  a_c   a_u   a_a   a_g   a_f1
[[0.246 0.62  0.667 0.562 0.615 0.26  0.629 0.66  0.591 0.623]
 [0.243 0.622 0.648 0.594 0.615 0.286 0.641 0.662 0.613 0.636]
 [0.256 0.621 0.661 0.591 0.616 0.276 0.639 0.665 0.615 0.634]
 [0.122 0.559 0.655 0.205 0.477 0.112 0.555 0.643 0.212 0.472]
 [0.222 0.603 0.681 0.451 0.577 0.289 0.639 0.699 0.524 0.619]
 [0.    0.    0.    0.    0.    0.    0.    0.    0.    0.   ]
 [0.    0.5   0.611 0.    0.378 0.    0.5   0.594 0.    0.371]]
Elapsed time: 1165.69847890536 minutes
Elapsed time: 19.428307981756 hours
