2024-03-07 18:22:27.615784: I tensorflow/core/util/port.cc:113] oneDNN custom operations are on. You may see slightly different numerical results due to floating-point round-off errors from different computation orders. To turn them off, set the environment variable `TF_ENABLE_ONEDNN_OPTS=0`.
2024-03-07 18:22:28.348861: I tensorflow/core/util/port.cc:113] oneDNN custom operations are on. You may see slightly different numerical results due to floating-point round-off errors from different computation orders. To turn them off, set the environment variable `TF_ENABLE_ONEDNN_OPTS=0`.
2024-03-07 18:22:29.823433: I tensorflow/core/platform/cpu_feature_guard.cc:210] This TensorFlow binary is optimized to use available CPU instructions in performance-critical operations.
To enable the following instructions: AVX2 FMA, in other operations, rebuild TensorFlow with the appropriate compiler flags.
    
    
-------------------------------
participant:  1
-------------------------------
    
    
participant:  1
corriendo en PC gamer:
Window size (sec):  5.0
step (sec):  3.75
overlap:  True
perc. of overlap:  25.0
Nearest multiple of 16 to 5000 is: 4992
Nearest multiple of 16 to 3750 is: 3744
['gsr_chunks', 'ppg_chunks', 'val_chunks', 'aro_chunks', 'time_chunks', 'tag_chunks', 'video']
C:\Users\Javier\Dropbox\c_sldl_3_1_5\functions.py:880: FutureWarning: ChainedAssignmentError: behaviour will change in pandas 3.0!
You are setting values through chained assignment. Currently this works in certain cases, but when using Copy-on-Write (which will become the default behaviour in pandas 3.0) this will never work to update the original DataFrame or Series, because the intermediate object on which we are setting values will behave as a copy.

------------- Evaluating model --------------
-------------------------------------
-------------------------------------
participant:  30
-------------------------------------
----- RESULTS ------
-------------------------------------
Window size (sec):  4.992
step (sec):  3.744
overlap:  True
perc. of overlap:  25.0
Number of windows / instances:  333
-rows: alg : KNN = 0; DT = 1; RF = 2; SVM = 3; GBM = 4; BDDAE = 5; DUMMY = 5
columns:
'val_cohen','val_uar', 'val_acc', 'val_gm',  'val_f1',  'aro_cohen','aro_uar', 'aro_acc', 'aro_gm',  'aro_f1'
-------------------------------------------------------------
  v_c   v_u   v_a   v_g   v_f1  a_c   a_u   a_a   a_g   a_f1
[[  nan   nan   nan   nan   nan   nan   nan   nan   nan   nan]
 [0.235 0.63  0.642 0.616 0.627 0.226 0.624 0.664 0.584 0.622]
 [0.27  0.645 0.676 0.666 0.645 0.287 0.603 0.643 0.616 0.602]
 [  nan   nan   nan   nan   nan   nan   nan   nan   nan   nan]
 [  nan   nan   nan   nan   nan   nan   nan   nan   nan   nan]
 [0.    0.    0.    0.    0.    0.    0.    0.    0.    0.   ]
 [0.    0.5   0.604 0.    0.376 0.    0.5   0.652 0.    0.395]]
participant performance loaded
    
    
-------------------------------
LAST participant's saved data: 
30
-------------------------------
    
    
---------------------------
KNN performance:
[[ 0.29907817  0.65005719  0.65187166  0.64239844  0.64652522  0.40208833
   0.69430556  0.79010695  0.6446746   0.696028  ]
 [        nan         nan         nan         nan         nan         nan
          nan         nan         nan         nan]
 [        nan         nan         nan         nan         nan         nan
          nan         nan         nan         nan]
 [ 0.15313177  0.57426113  0.60614973  0.53596592  0.56717177  0.0520486
   0.52610294  0.52557932  0.52050701  0.52299507]
 [ 0.5123283   0.74224308  0.7983066   0.7153915   0.75189299  0.26657608
   0.63321429  0.65508021  0.61238763  0.62886411]
 [ 0.26144771  0.61893281  0.70311943  0.57073094  0.62541997  0.23174632
   0.60588933  0.69376114  0.55112844  0.60793061]
 [ 0.34202811  0.67083333  0.67263815  0.66286282  0.66807368  0.21773879
   0.60848856  0.6127451   0.59831573  0.60518313]
 [ 0.02424985  0.51211538  0.54625668  0.47186876  0.50686432  0.46816642
   0.7312594   0.75106952  0.71656658  0.73110596]
 [        nan         nan         nan         nan         nan         nan
          nan         nan         nan         nan]
 [        nan         nan         nan         nan         nan         nan
          nan         nan         nan         nan]
 [ 0.13864154  0.56086957  0.66105169  0.47861285  0.55797146  0.21875129
   0.60758242  0.63707665  0.58978975  0.60641202]
 [ 0.54382295  0.7758343   0.77736185  0.77035628  0.76998229  0.28761358
   0.64123771  0.66568627  0.61563545  0.63790579]
 [ 0.15311364  0.55714286  0.83787879  0.31555083  0.56149393  0.362184
   0.68046703  0.69402852  0.67434857  0.67983769]
 [ 0.22232735  0.60427489  0.67174688  0.5550338   0.60597718  0.17542056
   0.58674242  0.63636364  0.54073409  0.57955762]
 [ 0.0910669   0.53613736  0.74768271  0.34365447  0.52649355 -0.05156614
   0.47426471  0.47442068  0.46079183  0.46772047]
 [ 0.12757582  0.56386846  0.56479501  0.5560382   0.5603284   0.35156933
   0.66536797  0.72352941  0.62517804  0.66897853]
 [ 0.05204079  0.52447658  0.54358289  0.50615813  0.52174478  0.16054752
   0.57530556  0.71122995  0.45576278  0.57080972]
 [ 0.34508652  0.67016291  0.68431373  0.65428465  0.66842268  0.47645244
   0.73823529  0.73823529  0.73596833  0.73719394]
 [ 0.17891467  0.58939693  0.59714795  0.57347204  0.5844859   0.32185779
   0.66137427  0.66354724  0.65933281  0.66017233]
 [ 0.49019117  0.73731225  0.78680927  0.72125476  0.74349349  0.44089001
   0.72058824  0.72085561  0.7138134   0.71766905]
 [ 0.11473376  0.55656843  0.59759358  0.52783444  0.55408457  0.30406446
   0.64557692  0.67869875  0.62049458  0.64640217]
 [ 0.10347561  0.5492033   0.59768271  0.50664802  0.54531902  0.25160446
   0.62508041  0.63324421  0.61316454  0.62244078]
 [        nan         nan         nan         nan         nan         nan
          nan         nan         nan         nan]]
KNN mean:
[0.23073637 0.6107606  0.66922163 0.56156205 0.60920807 0.27431966
 0.63450461 0.6669588  0.60825523 0.63262261]
---------------------------
---------------------------
DT performance:
[[0.33815133 0.64867239 0.6486631  0.65446884 0.64611324 0.34088575
  0.67675    0.74795009 0.64369932 0.67441919]
 [0.25222108 0.62923611 0.63074866 0.60290974 0.62600825 0.33524171
  0.63516484 0.64607843 0.63172264 0.63006604]
 [0.33908618 0.64834559 0.64875223 0.65043744 0.6457003  0.38443531
  0.69550654 0.6969697  0.67845699 0.69413171]
 [0.32107691 0.64375795 0.6513369  0.65049493 0.63926289 0.13034228
  0.56194853 0.56114082 0.56742331 0.55921664]
 [0.47548862 0.72483531 0.75632799 0.72009581 0.72439085 0.41042782
  0.68010989 0.69064171 0.70824089 0.67737739]
 [0.09927678 0.58460474 0.64269162 0.53237914 0.57780544 0.14775748
  0.5894664  0.64286988 0.53239493 0.58159715]
 [0.29610899 0.61762663 0.61862745 0.62258532 0.61572147 0.30882019
  0.63272876 0.6368984  0.64087441 0.63081955]
 [0.0275646  0.52374542 0.54064171 0.50497752 0.51776084 0.28000847
  0.66326056 0.67067736 0.65134359 0.65746453]
 [0.02176412 0.49981203 0.51060606 0.49459019 0.49120452 0.12141396
  0.57792607 0.58814617 0.55348258 0.57639294]
 [0.15622593 0.55919913 0.59768271 0.55941843 0.5559381  0.0902317
  0.58899101 0.5916221  0.56918568 0.58623069]
 [0.07303151 0.52966403 0.58618538 0.5070866  0.52946444 0.23969998
  0.63208791 0.65445633 0.64279617 0.62898675]
 [0.54948527 0.78522846 0.7926025  0.76864729 0.78356659 0.45761051
  0.72901243 0.73244207 0.73665858 0.72436754]
 [0.17699739 0.58977422 0.75686275 0.49801573 0.57555875 0.37463366
  0.69005495 0.69973262 0.68635933 0.68448386]
 [0.11580062 0.54897186 0.60579323 0.51248247 0.5436703  0.14248038
  0.56417749 0.5916221  0.55774375 0.56023933]
 [0.02701006 0.52396703 0.6486631  0.42038267 0.51780622 0.03322154
  0.52224265 0.52174688 0.522148   0.51733912]
 [0.03172619 0.5282067  0.5285205  0.52609068 0.52551879 0.12577102
  0.59935065 0.62165775 0.56410273 0.58814021]
 [0.2641678  0.59369289 0.59465241 0.59632933 0.58707199 0.13330115
  0.55947222 0.66372549 0.46619995 0.55605573]
 [0.3183356  0.6535589  0.66033868 0.65282556 0.65050722 0.4719723
  0.73602941 0.73573975 0.7325246  0.73429351]
 [0.16244028 0.56662646 0.57352941 0.56429271 0.56258503 0.24906057
  0.64055556 0.64286988 0.62968581 0.63905654]
 [0.28015361 0.63687747 0.69001783 0.61265778 0.63152259 0.35219535
  0.69044118 0.69037433 0.67585086 0.68815156]
 [0.10922196 0.53301698 0.57379679 0.51396386 0.52926329 0.22535002
  0.60389194 0.61862745 0.59454329 0.59915214]
 [0.14703486 0.58631868 0.61229947 0.5300251  0.57879552 0.18739774
  0.60476243 0.60962567 0.59396993 0.60405921]
 [0.23524542 0.6300641  0.64180036 0.61568051 0.62686755 0.22585153
  0.62418831 0.66417112 0.58443296 0.62203652]]
DT mean:
[0.20946153 0.59938274 0.63091917 0.57873207 0.59487409 0.25078741
 0.63035303 0.64868635 0.61581914 0.62669904]
---------------------------
---------------------------
RF performance:
[[ 0.24970879  0.63234886  0.63663102  0.62870551  0.62787432  0.48681112
   0.68197222  0.78146168  0.67497891  0.68890961]
 [ 0.32057492  0.65798611  0.65766488  0.64083353  0.65416781  0.34509595
   0.63526557  0.65793226  0.66882016  0.63529735]
 [ 0.38678436  0.72077206  0.72094474  0.70312758  0.71929527  0.41718813
   0.70807598  0.70882353  0.70685664  0.70692229]
 [ 0.21883294  0.66091527  0.6754902   0.60066692  0.65850798  0.14152379
   0.56470588  0.5644385   0.54168518  0.56127363]
 [ 0.48577382  0.70380435  0.75285205  0.70707697  0.70715564  0.29988988
   0.69835165  0.70891266  0.66903419  0.69725347]
 [ 0.15055445  0.61442688  0.69402852  0.51072147  0.6168461   0.1225914
   0.58011858  0.67005348  0.57613468  0.57846661]
 [ 0.33827427  0.64675245  0.64857398  0.60695322  0.64334605  0.19885272
   0.62332925  0.6245098   0.59142556  0.62064531]
 [ 0.07309729  0.56259158  0.58877005  0.51739167  0.5585122   0.30200576
   0.67595865  0.68796791  0.66867197  0.67033868]
 [ 0.10861426  0.5556391   0.57326203  0.51611506  0.55322579  0.19560494
   0.59831454  0.61292335  0.65982298  0.59637906]
 [ 0.08737291  0.53495671  0.6157754   0.49074517  0.52795975  0.14145594
   0.57690359  0.57700535  0.56729207  0.57499039]
 [ 0.04011002  0.57828063  0.65499109  0.52808268  0.58031402  0.15991646
   0.58961538  0.62174688  0.61356447  0.5841199 ]
 [ 0.6405547   0.77092105  0.78377897  0.8079715   0.77050575  0.50933043
   0.72592539  0.74144385  0.6958914   0.72662135]
 [ 0.19786262  0.59964696  0.83146168  0.40243393  0.60897802  0.3457394
   0.65423077  0.66657754  0.62284244  0.65221164]
 [ 0.19365085  0.56677489  0.61791444  0.59732815  0.56585074  0.17182575
   0.5741342   0.60909091  0.52906511  0.57148184]
 [-0.00876384  0.53564011  0.72950089  0.36198522  0.53281826  0.02118541
   0.49981618  0.50071301  0.48178396  0.49277333]
 [ 0.05752608  0.53386438  0.53458111  0.51442754  0.53116767  0.30213346
   0.64886364  0.68796791  0.57821946  0.6419077 ]
 [ 0.23890423  0.55375072  0.57344029  0.55517508  0.54890722  0.11802411
   0.52347222  0.67254902  0.43728279  0.51644135]
 [ 0.32327389  0.69280702  0.70534759  0.65432766  0.69007302  0.58022232
   0.76360294  0.76247772  0.76215412  0.76142638]
 [ 0.18388834  0.61739035  0.62459893  0.53646707  0.61481347  0.39894619
   0.70038012  0.7026738   0.68434639  0.69764886]
 [ 0.32364459  0.71083004  0.75053476  0.65805776  0.70755951  0.44293795
   0.75992647  0.75980392  0.71365262  0.75820392]
 [ 0.17674225  0.57102065  0.61871658  0.49813367  0.56725587  0.30334798
   0.63678571  0.65811052  0.64053727  0.63516742]
 [ 0.16041205  0.57303114  0.60659537  0.48957871  0.56680492  0.29624769
   0.64353801  0.6513369   0.61517046  0.64322238]
 [ 0.27028557  0.64520147  0.67557932  0.66591066  0.6447903   0.28693548
   0.60275974  0.64304813  0.61552618  0.60167457]]
RF mean:
[0.22685562 0.61910229 0.66395799 0.57357464 0.61724912 0.28642662
 0.6376542  0.66398124 0.62238083 0.63536422]
---------------------------
---------------------------
SVM performance:
[[ 0.29427501  0.64205474  0.66069519  0.58237214  0.62359322  0.
   0.5         0.73877005  0.          0.42485004]
 [        nan         nan         nan         nan         nan         nan
          nan         nan         nan         nan]
 [        nan         nan         nan         nan         nan         nan
          nan         nan         nan         nan]
 [ 0.03393483  0.51447802  0.60062389  0.14439019  0.41089447  0.09750462
   0.54889706  0.54919786  0.52001616  0.53479657]
 [ 0.48380288  0.71060606  0.8043672   0.64496102  0.72750364  0.33185065
   0.65843407  0.69402852  0.63206891  0.66081114]
 [ 0.          0.5         0.68172906  0.          0.40533835  0.
   0.5         0.68778966  0.          0.4074812 ]
 [ 0.17639884  0.58660131  0.59786096  0.49990632  0.54945864  0.26770369
   0.63677696  0.62825312  0.61964133  0.62315063]
 [ 0.          0.5         0.60365419  0.          0.37640684  0.39590738
   0.68621457  0.73012478  0.63770095  0.68433078]
 [        nan         nan         nan         nan         nan         nan
          nan         nan         nan         nan]
 [        nan         nan         nan         nan         nan         nan
          nan         nan         nan         nan]
 [ 0.          0.5         0.67566845  0.          0.40319549  0.
   0.5         0.62771836  0.          0.38561464]
 [ 0.60080956  0.80028918  0.80748663  0.79538528  0.79922445  0.09275087
   0.54052198  0.62486631  0.25813447  0.4638738 ]
 [ 0.          0.5         0.84393939  0.          0.4576658  -0.0296687
   0.48598901  0.58003565  0.05630975  0.37881941]
 [ 0.          0.5         0.65775401  0.          0.39674603  0.
   0.5         0.63957219  0.          0.39007937]
 [ 0.          0.5         0.77183601  0.          0.43558153  0.00362701
   0.50183824  0.49848485  0.2488998   0.40979213]
 [ 0.03002708  0.5150531   0.51657754  0.43499907  0.484107    0.
   0.5         0.6426025   0.          0.39119048]
 [ 0.          0.5         0.5855615   0.          0.36927512  0.
   0.5         0.73270945  0.          0.42285367]
 [ 0.34609822  0.66403509  0.69652406  0.61515034  0.65755444  0.54952534
   0.775       0.77477718  0.77177001  0.77359129]
 [ 0.          0.5         0.54358289  0.          0.35213865  0.14878875
   0.57204678  0.58832442  0.53024626  0.55891701]
 [ 0.10496119  0.5416996   0.69358289  0.28434879  0.50112387  0.44763819
   0.72389706  0.72379679  0.71433936  0.71973   ]
 [ 0.          0.5         0.63663102  0.          0.38897547  0.08158162
   0.53492674  0.63065954  0.21802336  0.45231385]
 [ 0.          0.5         0.62165775  0.          0.38330856  0.
   0.5         0.54652406  0.          0.35337232]
 [        nan         nan         nan         nan         nan         nan
          nan         nan         nan         nan]]
SVM mean:
[0.11501709 0.55415651 0.66665181 0.22230629 0.48456064 0.13262275
 0.5646968  0.64656863 0.28928613 0.50197602]
---------------------------
---------------------------
GBM performance:
[[ 0.47143456  0.73376634  0.73930481  0.7267348   0.73354664  0.30718258
   0.63158333  0.79019608  0.48314317  0.63014047]
 [        nan         nan         nan         nan         nan         nan
          nan         nan         nan         nan]
 [        nan         nan         nan         nan         nan         nan
          nan         nan         nan         nan]
 [ 0.29905103  0.63853962  0.6872549   0.56872199  0.62783805  0.24545862
   0.62591912  0.62424242  0.60611984  0.61556284]
 [ 0.52995238  0.73522727  0.81925134  0.68919502  0.7542159   0.48949954
   0.73115385  0.76907308  0.70304482  0.73812487]
 [ 0.08561829  0.53312253  0.69393939  0.22444337  0.48048944  0.02082436
   0.5108498   0.68778966  0.09200651  0.43707147]
 [ 0.37052826  0.68535539  0.69376114  0.64424664  0.67184709  0.26783804
   0.64011438  0.65178253  0.6047824   0.62868765]
 [ 0.01306272  0.49961538  0.58547237  0.25113979  0.43020516  0.41861923
   0.69564344  0.73609626  0.65413368  0.69562011]
 [        nan         nan         nan         nan         nan         nan
          nan         nan         nan         nan]
 [        nan         nan         nan         nan         nan         nan
          nan         nan         nan         nan]
 [ 0.05779608  0.52266798  0.68181818  0.17721428  0.45825607  0.12159206
   0.55105311  0.66078431  0.29882225  0.49156786]
 [ 0.70492775  0.85177126  0.85864528  0.84577587  0.85175399  0.48571434
   0.73780798  0.7597148   0.71818881  0.73745705]
 [ 0.02180095  0.50821429  0.84393939  0.0439155   0.47181259  0.25218961
   0.5957967   0.66381462  0.46884363  0.56639239]
 [ 0.16372367  0.5646645   0.68734403  0.3748184   0.53387196  0.16912183
   0.56666667  0.6785205   0.38595673  0.52945088]
 [ 0.          0.5         0.77183601  0.          0.43558153 -0.0193633
   0.49044118  0.48983957  0.47078333  0.48175106]
 [ 0.07213648  0.53933824  0.53787879  0.51146792  0.52806025  0.16640324
   0.57218615  0.68449198  0.33734162  0.52480166]
 [ 0.07855349  0.53307981  0.5973262   0.35992751  0.47861959 -0.01153846
   0.49583333  0.72664884  0.          0.420786  ]
 [ 0.40809657  0.69934837  0.71729055  0.68057735  0.69706905  0.60425569
   0.80294118  0.80142602  0.79769625  0.79989319]
 [ 0.18768263  0.59013889  0.61229947  0.5275169   0.57028444  0.31053059
   0.65298246  0.66372549  0.63648358  0.64991631]
 [ 0.09528437  0.5365415   0.68761141  0.29905414  0.49724962  0.53246756
   0.76654412  0.76613191  0.76089127  0.76408386]
 [-0.00243248  0.49908425  0.63360071  0.0270666   0.39404313  0.16554649
   0.57954212  0.64572193  0.46947422  0.55636478]
 [ 0.16114855  0.57664835  0.65445633  0.43662941  0.55226224  0.33814242
   0.66202851  0.68475936  0.61759703  0.65107332]
 [        nan         nan         nan         nan         nan         nan
          nan         nan         nan         nan]]
GBM mean:
[0.20657585 0.59706244 0.69461279 0.41046919 0.56483371 0.27024914
 0.62828263 0.69359774 0.50585051 0.60659699]
---------------------------
---------------------------
BDDAE performance:
[[0. 0. 0. 0. 0. 0. 0. 0. 0. 0.]
 [0. 0. 0. 0. 0. 0. 0. 0. 0. 0.]
 [0. 0. 0. 0. 0. 0. 0. 0. 0. 0.]
 [0. 0. 0. 0. 0. 0. 0. 0. 0. 0.]
 [0. 0. 0. 0. 0. 0. 0. 0. 0. 0.]
 [0. 0. 0. 0. 0. 0. 0. 0. 0. 0.]
 [0. 0. 0. 0. 0. 0. 0. 0. 0. 0.]
 [0. 0. 0. 0. 0. 0. 0. 0. 0. 0.]
 [0. 0. 0. 0. 0. 0. 0. 0. 0. 0.]
 [0. 0. 0. 0. 0. 0. 0. 0. 0. 0.]
 [0. 0. 0. 0. 0. 0. 0. 0. 0. 0.]
 [0. 0. 0. 0. 0. 0. 0. 0. 0. 0.]
 [0. 0. 0. 0. 0. 0. 0. 0. 0. 0.]
 [0. 0. 0. 0. 0. 0. 0. 0. 0. 0.]
 [0. 0. 0. 0. 0. 0. 0. 0. 0. 0.]
 [0. 0. 0. 0. 0. 0. 0. 0. 0. 0.]
 [0. 0. 0. 0. 0. 0. 0. 0. 0. 0.]
 [0. 0. 0. 0. 0. 0. 0. 0. 0. 0.]
 [0. 0. 0. 0. 0. 0. 0. 0. 0. 0.]
 [0. 0. 0. 0. 0. 0. 0. 0. 0. 0.]
 [0. 0. 0. 0. 0. 0. 0. 0. 0. 0.]
 [0. 0. 0. 0. 0. 0. 0. 0. 0. 0.]
 [0. 0. 0. 0. 0. 0. 0. 0. 0. 0.]]
BDDAE mean:
[0. 0. 0. 0. 0. 0. 0. 0. 0. 0.]
---------------------------
---------------------------
DUMMY performance:
[[0.         0.5        0.53761141 0.         0.34961086 0.
  0.5        0.73877005 0.         0.42485004]
 [0.         0.5        0.54064171 0.         0.35090498 0.
  0.5        0.60953654 0.         0.3786964 ]
 [0.         0.5        0.51060606 0.         0.338      0.
  0.5        0.5285205  0.         0.34572851]
 [0.         0.5        0.5916221  0.         0.37166989 0.
  0.5        0.50757576 0.         0.33665306]
 [0.         0.5        0.66666667 0.         0.39998747 0.
  0.5        0.60071301 0.         0.37526205]
 [0.         0.5        0.68172906 0.         0.40533835 0.
  0.5        0.68778966 0.         0.4074812 ]
 [0.         0.5        0.51942959 0.         0.34184615 0.
  0.5        0.53761141 0.         0.34961086]
 [0.         0.5        0.60365419 0.         0.37640684 0.
  0.5        0.59768271 0.         0.37406467]
 [0.         0.5        0.57950089 0.         0.36688034 0.
  0.5        0.57361854 0.         0.36450438]
 [0.         0.5        0.65472371 0.         0.39563492 0.
  0.5        0.53458111 0.         0.34831674]
 [0.         0.5        0.67566845 0.         0.40319549 0.
  0.5        0.62771836 0.         0.38561464]
 [0.         0.5        0.5916221  0.         0.37166989 0.
  0.5        0.59768271 0.         0.37406467]
 [0.         0.5        0.84393939 0.         0.4576658  0.
  0.5        0.60071301 0.         0.37526205]
 [0.         0.5        0.65775401 0.         0.39674603 0.
  0.5        0.63957219 0.         0.39007937]
 [0.         0.5        0.77183601 0.         0.43558153 0.
  0.5        0.50151515 0.         0.33395918]
 [0.         0.5        0.51648841 0.         0.3405641  0.
  0.5        0.6426025  0.         0.39119048]
 [0.         0.5        0.5855615  0.         0.36927512 0.
  0.5        0.73270945 0.         0.42285367]
 [0.         0.5        0.57067736 0.         0.3633164  0.
  0.5        0.50757576 0.         0.33665306]
 [0.         0.5        0.54358289 0.         0.35213865 0.
  0.5        0.54946524 0.         0.35460599]
 [0.         0.5        0.68475936 0.         0.40640977 0.
  0.5        0.50454545 0.         0.33530612]
 [0.         0.5        0.63663102 0.         0.38897547 0.
  0.5        0.60659537 0.         0.37755162]
 [0.         0.5        0.62165775 0.         0.38330856 0.
  0.5        0.54652406 0.         0.35337232]
 [0.         0.5        0.60365419 0.         0.37640684 0.
  0.5        0.6516934  0.         0.39452381]]
DUMMY mean:
[0.         0.5        0.6169573  0.         0.38006667 0.
 0.5        0.59240487 0.         0.37087847]
---------------------------
Current folder: C:\Users\Javier\Dropbox\c_sldl_3_1_5
-------------------------------------
----- RESULTS ------
-------------------------------------
Window size (sec):  4.992
step (sec):  3.744
overlap:  True
perc. of overlap:  25.0
Number of windows / instances:  333
---------------------------
ALG Means: 
-rows: alg : KNN = 0; DT = 1; RF = 2; SVM = 3; GBM = 4; BDDAE = 5; DUMMY = 5
columns:
'val_cohen','val_uar', 'val_acc', 'val_gm',  'val_f1',  'aro_cohen','aro_uar', 'aro_acc', 'aro_gm',  'aro_f1'
-------------------------------------------------------------
  v_c   v_u   v_a   v_g   v_f1  a_c   a_u   a_a   a_g   a_f1
[[0.231 0.611 0.669 0.562 0.609 0.274 0.635 0.667 0.608 0.633]
 [0.209 0.599 0.631 0.579 0.595 0.251 0.63  0.649 0.616 0.627]
 [0.227 0.619 0.664 0.574 0.617 0.286 0.638 0.664 0.622 0.635]
 [0.115 0.554 0.667 0.222 0.485 0.133 0.565 0.647 0.289 0.502]
 [0.207 0.597 0.695 0.41  0.565 0.27  0.628 0.694 0.506 0.607]
 [0.    0.    0.    0.    0.    0.    0.    0.    0.    0.   ]
 [0.    0.5   0.617 0.    0.38  0.    0.5   0.592 0.    0.371]]
Elapsed time: 5.720487217108409 minutes
Elapsed time: 0.09534145361847347 hours
