2024-03-14 16:14:41.528942: I tensorflow/core/util/port.cc:113] oneDNN custom operations are on. You may see slightly different numerical results due to floating-point round-off errors from different computation orders. To turn them off, set the environment variable `TF_ENABLE_ONEDNN_OPTS=0`.
2024-03-14 16:14:45.271032: I tensorflow/core/util/port.cc:113] oneDNN custom operations are on. You may see slightly different numerical results due to floating-point round-off errors from different computation orders. To turn them off, set the environment variable `TF_ENABLE_ONEDNN_OPTS=0`.
2024-03-14 16:14:54.513235: I tensorflow/core/platform/cpu_feature_guard.cc:210] This TensorFlow binary is optimized to use available CPU instructions in performance-critical operations.
To enable the following instructions: AVX2 FMA, in other operations, rebuild TensorFlow with the appropriate compiler flags.
    
    
-------------------------------
participant:  1
-------------------------------
    
    
participant:  1
corriendo en PC gamer:
Window size (sec):  1.0
step (sec):  0.5
overlap:  True
perc. of overlap:  50.0
overlap duration (sec):  0.5
Nearest multiple of 16 to 1000 is: 992
Nearest multiple of 16 to 500 is: 496
['gsr_chunks', 'ppg_chunks', 'val_chunks', 'aro_chunks', 'time_chunks', 'tag_chunks', 'video']
C:\Users\Javier\Dropbox\c_sldl_1_2_10\functions.py:880: FutureWarning: ChainedAssignmentError: behaviour will change in pandas 3.0!

[1m16/16[0m [32m━━━━━━━━━━━━━━━━━━━━[0m[37m[0m [1m0s[0m 8ms/step
predicted [0.39337054 0.6511034  0.75398976 0.81198466 0.2589653  0.16012679
 0.19360572 0.6926304  0.43019214 0.6456342  0.6854645  0.7597455
 0.67807996 0.7120062  0.64546144 0.7546616  0.7679624  0.6918589
 0.7307428  0.7591695  0.57938075 0.65641105 0.73582006 0.782328
 0.28259048 0.6898398  0.21302566 0.71470904 0.63044274 0.65601766
 0.20037651 0.7430099  0.3093568  0.7412195  0.76321137 0.73570704
 0.7400757  0.7323255  0.7208588  0.73622656 0.7266989  0.48133612
 0.6948582  0.6729761  0.6823686  0.69125354 0.67614675 0.76551896
 0.7495729  0.6656789  0.53397787 0.6486044  0.6866214  0.6344373
 0.71506596 0.77540994 0.7503905  0.49402386 0.17769326 0.1959056
 0.7328936  0.6684313  0.27401447 0.69929045 0.7612213  0.46716475
 0.6785972  0.6462226  0.22522065 0.7420198  0.6537287  0.72599685
 0.4162292  0.70183754 0.69505596 0.74866515 0.7684094  0.25188258
 0.246827   0.660203   0.50540733 0.6023638  0.7404703  0.6994685
 0.6821697  0.46412235 0.5946214  0.7380489  0.46928474 0.44844908
 0.23238954 0.7071805  0.6999213  0.53457415 0.7408445  0.74976534
 0.7802609  0.18640232 0.7560347  0.65669745 0.7515029  0.7111962
 0.75079465 0.24398385 0.67480373 0.15537609 0.6720599  0.6791221
 0.7739567  0.46336856 0.7048863  0.5104387  0.69417    0.69878614
 0.6338845  0.72423863 0.7401543  0.18725707 0.19035622 0.72883254
 0.7498554  0.5408399  0.4817124  0.32191467 0.2143534  0.7681516
 0.70454156 0.77688    0.65925    0.6853352  0.67827845 0.7091194
 0.4648174  0.72963    0.6846334  0.7035387  0.63709307 0.7896194
 0.7210713  0.7835915  0.7257972  0.64418864 0.7900273  0.6993898
 0.72663534 0.6120893  0.67952985 0.6921909  0.7630987  0.65570486
 0.7787928  0.7540521  0.64767146 0.6964549  0.69371045 0.7193707
 0.7016083  0.73151505 0.4986303  0.2641446  0.62827104 0.49972802
 0.71143293 0.16463661 0.64746404 0.1440938  0.6388837  0.6737541
 0.2228197  0.6943699  0.69710165 0.6520309  0.6953     0.764958
 0.7364121  0.76211816 0.7499068  0.55224097 0.27959436 0.66984904
 0.44665352 0.7606088  0.69254875 0.7799891  0.6840298  0.6870374
 0.69433963 0.6817261  0.15705574 0.5488827  0.7768798  0.4775185
 0.6758482  0.7488189  0.690844   0.7782695  0.742744   0.14856786
 0.2583798  0.7552436  0.22032662 0.46423197 0.66466516 0.69756114
 0.6959361  0.7351264  0.7463737  0.6803178  0.27182853 0.704648
 0.66833436 0.7405931  0.7578993  0.18468945 0.140742   0.70647573
 0.6530057  0.72371346 0.69082737 0.7135769  0.77256674 0.24451461
 0.46758667 0.500205   0.7666341  0.71958816 0.3881869  0.759599
 0.30176064 0.7318889  0.7007684  0.34460688 0.7338265  0.76153064
 0.17118971 0.45832416 0.73543245 0.7394017  0.7677107  0.28548664
 0.19475305 0.16420378 0.7217642  0.7844806  0.5924992  0.6931094
 0.14115162 0.6936531  0.4249884  0.7684798  0.7059946  0.31803036
 0.6701179  0.76524425 0.73682654 0.7923657  0.5241397  0.7904792
 0.5798484  0.7318065  0.6412361  0.13106629 0.22611807 0.42242575
 0.67414165 0.5614152  0.65524054 0.2106579  0.20408995 0.7457756
 0.74625367 0.6453068  0.16602463 0.7627153  0.71568966 0.7856733
 0.7166549  0.79615796 0.7311446  0.730011   0.7519026  0.6578027
 0.65471786 0.51933604 0.7456776  0.69445956 0.74730515 0.78698075
 0.525175   0.70859337 0.7326668  0.16367498 0.72035384 0.6498833
 0.645756   0.7594208  0.7162478  0.6186737  0.7454842  0.7541544
 0.70032966 0.19548441 0.7558562  0.72503877 0.17726359 0.6365994
 0.74059397 0.7896146  0.19270992 0.3063049  0.51911736 0.7074946
 0.2620403  0.6367873  0.76785916 0.51061773 0.68444324 0.7489954
 0.7411989  0.721429   0.62659264 0.79676604 0.6759912  0.68823326
 0.41495627 0.2090066  0.7056004  0.75129193 0.6855594  0.7816213
 0.64885783 0.778931   0.62076616 0.17300218 0.6876627  0.7282901
 0.6611626  0.55344695 0.74795794 0.71449876 0.69595385 0.48036724
 0.6427615  0.5112749  0.6476549  0.6780963  0.14899234 0.6855823
 0.70622313 0.51511157 0.7018434  0.76757467 0.78577924 0.7053875
 0.703887   0.7126739  0.72181433 0.7147764  0.74664104 0.646296
 0.7503507  0.28078038 0.45234174 0.76460075 0.62427306 0.76336133
 0.6916679  0.28227016 0.7654813  0.7282073  0.2529224  0.2782397
 0.5297196  0.7185787  0.16842468 0.68473613 0.7915734  0.6730939
 0.6304009  0.67074    0.7222079  0.75705445 0.5371862  0.6663366
 0.7086514  0.4403177  0.67443633 0.69789875 0.73382074 0.7207236
 0.66998327 0.40336573 0.7718048  0.6849543  0.68717647 0.17261092
 0.73116624 0.6955567  0.774774   0.23835503 0.17847931 0.5136478
 0.48098844 0.6799935  0.6723738  0.64718384 0.68438506 0.72026753
 0.7151363  0.6934322  0.7127696  0.71053755 0.51511997 0.6985512
 0.65080106 0.71508837 0.5253005  0.6765732  0.5953099  0.6012008
 0.6915958  0.7357317  0.67006075 0.7528967  0.79227215 0.26067555
 0.189826   0.66068876 0.67255646 0.70094275 0.63805103 0.6436038
 0.6210568  0.69599783 0.16683577 0.29333565 0.6009592  0.7591643
 0.21964608 0.7396198  0.7194611  0.6512707  0.74343693 0.6842918
 0.5818902  0.67992765 0.69023407 0.75215393 0.72554874 0.6403002
 0.711313   0.7886555  0.7735473  0.15829046 0.19411215 0.7578771
 0.70934165 0.67593086 0.5071949  0.7045206  0.7530605  0.6499079
 0.73576415 0.69411963 0.6737586  0.6655711  0.68028367 0.2741892
 0.62060106 0.68296874 0.3062846  0.72987235 0.68222976 0.20926352
 0.66674167 0.6608877  0.78402334 0.49212435 0.7630414  0.6918857
 0.57698643 0.6452949  0.20681222 0.70109963 0.670269   0.66391546
 0.6354841  0.30000055 0.5060743  0.7194309  0.65756905 0.7027997
 0.7561645  0.72810346 0.75133324 0.42974058 0.48054045 0.6775547
 0.6614394  0.3164538  0.71021235 0.15633866 0.61561096 0.16344291
 0.7260128  0.26157027 0.7346917  0.46441302 0.3029171  0.68068427]
predicted [0 1 1 1 0 0 0 1 0 1 1 1 1 1 1 1 1 1 1 1 1 1 1 1 0 1 0 1 1 1 0 1 0 1 1 1 1
 1 1 1 1 0 1 1 1 1 1 1 1 1 1 1 1 1 1 1 1 0 0 0 1 1 0 1 1 0 1 1 0 1 1 1 0 1
 1 1 1 0 0 1 1 1 1 1 1 0 1 1 0 0 0 1 1 1 1 1 1 0 1 1 1 1 1 0 1 0 1 1 1 0 1
 1 1 1 1 1 1 0 0 1 1 1 0 0 0 1 1 1 1 1 1 1 0 1 1 1 1 1 1 1 1 1 1 1 1 1 1 1
 1 1 1 1 1 1 1 1 1 1 0 0 1 0 1 0 1 0 1 1 0 1 1 1 1 1 1 1 1 1 0 1 0 1 1 1 1
 1 1 1 0 1 1 0 1 1 1 1 1 0 0 1 0 0 1 1 1 1 1 1 0 1 1 1 1 0 0 1 1 1 1 1 1 0
 0 1 1 1 0 1 0 1 1 0 1 1 0 0 1 1 1 0 0 0 1 1 1 1 0 1 0 1 1 0 1 1 1 1 1 1 1
 1 1 0 0 0 1 1 1 0 0 1 1 1 0 1 1 1 1 1 1 1 1 1 1 1 1 1 1 1 1 1 1 0 1 1 1 1
 1 1 1 1 1 0 1 1 0 1 1 1 0 0 1 1 0 1 1 1 1 1 1 1 1 1 1 1 0 0 1 1 1 1 1 1 1
 0 1 1 1 1 1 1 1 0 1 1 1 1 0 1 1 1 1 1 1 1 1 1 1 1 1 1 1 0 0 1 1 1 1 0 1 1
 0 0 1 1 0 1 1 1 1 1 1 1 1 1 1 0 1 1 1 1 1 0 1 1 1 0 1 1 1 0 0 1 0 1 1 1 1
 1 1 1 1 1 1 1 1 1 1 1 1 1 1 1 1 1 1 0 0 1 1 1 1 1 1 1 0 0 1 1 0 1 1 1 1 1
 1 1 1 1 1 1 1 1 1 0 0 1 1 1 1 1 1 1 1 1 1 1 1 0 1 1 0 1 1 0 1 1 1 0 1 1 1
 1 0 1 1 1 1 0 1 1 1 1 1 1 1 0 0 1 1 0 1 0 1 0 1 0 1 0 0 1]
expected [ True  True False  True False False False  True False  True  True  True
  True  True  True  True  True  True False  True  True  True False  True
 False  True False  True False  True False  True False False  True False
  True False False  True  True  True  True  True  True  True  True  True
 False  True False  True False  True False  True  True  True False False
 False False False  True  True  True False False False  True  True False
  True  True False  True  True  True False  True  True  True  True False
  True  True  True  True  True  True False  True  True  True False  True
  True False False False  True  True False False  True False  True  True
  True  True  True  True False False  True False False False False False
  True  True  True False False  True False  True  True  True  True False
  True False  True  True  True  True  True False False  True False False
 False False  True  True  True  True  True  True  True False  True False
  True False  True  True  True  True  True False False False  True False
 False  True  True  True False  True False  True False  True False  True
  True  True  True  True  True False  True False False  True  True  True
  True  True False  True False False False  True False  True  True  True
  True  True False False False  True  True  True  True False False  True
  True  True False False  True False  True  True  True False  True  True
 False  True False False False  True False  True False False  True False
 False False  True  True  True False False False  True  True  True False
 False  True False  True  True  True  True False False False False  True
  True  True  True False False  True  True False False  True  True  True
 False  True False  True  True  True  True  True  True False  True  True
  True  True False False  True  True  True False False False False  True
  True False  True False False  True  True  True False False  True  True
 False False  True  True False False False False  True  True  True  True
  True False False False  True  True False  True  True False  True  True
  True  True False  True False  True  True  True  True  True False False
 False  True False  True  True  True False False False False False False
 False False  True  True  True  True False False  True False False False
  True  True False  True  True  True False False False False  True  True
 False  True  True  True  True False  True  True  True False  True False
 False  True  True False False  True  True  True  True  True  True False
  True  True False  True  True  True  True  True  True  True  True  True
  True  True  True  True  True False False  True  True False  True False
  True  True False False  True  True False False  True  True  True False
  True  True  True  True False  True False  True  True False False  True
  True  True  True False  True False  True False  True  True False  True
  True  True False  True  True False False  True  True  True  True False
  True  True False  True  True False False False  True  True  True False
 False  True  True  True  True  True  True  True  True False  True False
  True  True False  True False  True]
accuracy: 0.6882352941176471
confusion matrix: 
[[ 77 123]
 [ 36 274]]
              precision    recall  f1-score   support

       False       0.68      0.39      0.49       200
        True       0.69      0.88      0.78       310

    accuracy                           0.69       510
   macro avg       0.69      0.63      0.63       510
weighted avg       0.69      0.69      0.66       510

macro avg f1-score: 0.6335594307947454
macro avg (UAR): 0.6344354838709678
Sensitivity:  0.385
Specificity:  0.8838709677419355
g-mean:  0.583344085922404
-------- Model Performance ----------: 
accuracy:  [0.73921569 0.67843137 0.74117647 0.7254902  0.72352941 0.7372549
 0.69803922 0.74705882 0.68431373 0.68823529]
gmean:  [0.5982771  0.57255793 0.60843533 0.5819877  0.58417297 0.58777876
 0.59939486 0.6203277  0.65117759 0.58334409]
f1_score:  [0.67190516 0.62270619 0.67793172 0.65540541 0.65522532 0.66566212
 0.64695411 0.68726678 0.66273582 0.63355943]
UAR:  [0.67282258 0.62459677 0.67709677 0.65887097 0.65814516 0.66854839
 0.64604839 0.68459677 0.66048387 0.63443548]
Cohen Kappa score:  [0.38720752 0.26977475 0.39482201 0.35559567 0.35292    0.37951698
 0.3156152  0.41032536 0.32647035 0.29135716]
arousal and valece = ok
------------- Evaluating model --------------
-------------------------------------
-------------------------------------
participant:  30
-------------------------------------
----- RESULTS ------
-------------------------------------
Window size (sec):  0.992
step (sec):  0.496
overlap:  True
perc. of overlap:  50.0
overlap duration (sec):  0.496
Number of windows / instances:  2548
-rows: alg : KNN = 0; DT = 1; RF = 2; SVM = 3; GBM = 4; BDDAE = 5; DUMMY = 5
columns:
'val_cohen','val_uar', 'val_acc', 'val_gm',  'val_f1',  'aro_cohen','aro_uar', 'aro_acc', 'aro_gm',  'aro_f1'
-------------------------------------------------------------
  v_c   v_u   v_a   v_g   v_f1  a_c   a_u   a_a   a_g   a_f1
[[0.513 0.756 0.768 0.754 0.756 0.403 0.697 0.734 0.684 0.701]
 [0.394 0.703 0.715 0.699 0.702 0.354 0.675 0.705 0.667 0.676]
 [0.468 0.735 0.751 0.736 0.736 0.405 0.694 0.737 0.685 0.7  ]
 [0.452 0.722 0.743 0.715 0.725 0.382 0.679 0.737 0.649 0.687]
 [0.277 0.622 0.698 0.509 0.603 0.31  0.631 0.734 0.529 0.629]
 [0.348 0.659 0.716 0.599 0.658 0.081 0.533 0.667 0.22  0.465]
 [0.    0.5   0.608 0.    0.378 0.    0.5   0.65  0.    0.394]]
participant performance loaded
    
    
-------------------------------
LAST participant's saved data: 
30
-------------------------------
    
    
---------------------------
KNN performance:
[[0.4338778  0.71462543 0.72177397 0.7092738  0.71575674 0.45874449
  0.71509521 0.80650764 0.68900501 0.72823705]
 [0.5230787  0.76251157 0.76217539 0.7622961  0.7613458  0.53755991
  0.76330368 0.78413617 0.75698596 0.76820267]
 [0.48587695 0.7393299  0.75155782 0.73323522 0.74192447 0.43495401
  0.71813882 0.717065   0.71748424 0.71698971]
 [0.31736582 0.65775825 0.6624641  0.65446061 0.65808067 0.14737944
  0.56633617 0.68487726 0.48998731 0.56766636]
 [0.51005773 0.74700401 0.77237764 0.73548932 0.75326264 0.49711027
  0.74792503 0.74959549 0.74603867 0.74802654]
 [0.43674169 0.71836928 0.71859194 0.71761553 0.71807985 0.56203995
  0.7802993  0.78258299 0.77914749 0.78079401]
 [0.30061167 0.64669092 0.67073491 0.63257812 0.64831617 0.36732521
  0.68365527 0.68367608 0.68201932 0.68295746]
 [0.79868653 0.88598459 0.91365293 0.88164024 0.89902788 0.60343343
  0.80337136 0.80769183 0.80300792 0.80166521]
 [0.29176042 0.63413256 0.71979466 0.58878224 0.64134625 0.26320581
  0.62093136 0.71155473 0.57148456 0.62692039]
 [0.4090809  0.70420856 0.70523854 0.70250986 0.70399145 0.33750856
  0.66839546 0.67151459 0.66648428 0.66838692]
 [0.13681097 0.56612644 0.59969122 0.54096394 0.56545384 0.42313217
  0.70579386 0.72959549 0.6938624  0.7098381 ]
 [0.54955195 0.76930482 0.78965416 0.76312267 0.77418108 0.48225249
  0.74037256 0.75391539 0.7374829  0.74100877]
 [0.31851406 0.6576979  0.66994751 0.65175265 0.65860926 0.25386422
  0.62680855 0.63422418 0.62410862 0.62673372]
 [0.31821449 0.65295356 0.70053729 0.63161797 0.65737006 0.45905844
  0.72844693 0.73195152 0.72609003 0.72902912]
 [0.27394209 0.63147096 0.69191755 0.60417861 0.63526627 0.22461366
  0.61149618 0.63735371 0.59963207 0.61142132]
 [0.24160869 0.61813974 0.64247028 0.60314991 0.61900589 0.48710883
  0.73343697 0.7778771  0.71873799 0.74229334]
 [0.49326317 0.74542561 0.75509958 0.74280932 0.7464544  0.32286157
  0.65799684 0.6805342  0.64562418 0.65981099]
 [0.23745762 0.59919632 0.83633627 0.48451813 0.61411978 0.29846854
  0.64729416 0.6663903  0.6384952  0.64839055]
 [0.47267288 0.72955682 0.78061603 0.71553467 0.73561258 0.51448106
  0.75627112 0.76058824 0.75479437 0.7570689 ]
 [0.30707718 0.64635853 0.70093871 0.62061186 0.65133539 0.25721842
  0.62249625 0.67150069 0.59392575 0.62547877]
 [0.06851235 0.5278876  0.73196233 0.36855865 0.52211814 0.07316811
  0.53658755 0.53650455 0.53371324 0.53510813]
 [0.21503637 0.60769193 0.60715918 0.60666416 0.60678795 0.2239753
  0.6072014  0.66011888 0.57799678 0.60942959]
 [0.13523254 0.56660093 0.58713448 0.55291986 0.56635004 0.20675395
  0.59354667 0.71743554 0.52780761 0.59945929]
 [0.20962169 0.60469887 0.60636097 0.60266575 0.60419787 0.3478729
  0.6721076  0.68090474 0.66635415 0.67284422]
 [0.34830536 0.67309518 0.68209511 0.66908475 0.67365749 0.56819502
  0.78403146 0.78416088 0.7832383  0.78382517]
 [0.25916829 0.62914135 0.63303844 0.62626403 0.62900135 0.5262158
  0.76290495 0.7665061  0.76160582 0.76286881]
 [0.51045674 0.73959723 0.79983789 0.71986469 0.75345186 0.3729882
  0.68633639 0.6868118  0.68394811 0.68555146]
 [0.13097833 0.56352662 0.61143894 0.53427301 0.56351089 0.39363778
  0.69365187 0.71351397 0.68539141 0.69601225]
 [0.23633639 0.61547418 0.64912305 0.59825678 0.61679174 0.27853569
  0.63821352 0.64524934 0.63263302 0.63818401]
 [0.51320248 0.75644065 0.76804848 0.75391179 0.75638218 0.40256647
  0.69676085 0.73430446 0.68443734 0.70058135]]
KNN mean:
[0.34943673 0.67036668 0.70805898 0.65028681 0.67302633 0.37754099
 0.68564024 0.7122881  0.67238414 0.68749281]
---------------------------
---------------------------
DT performance:
[[0.35155194 0.68085123 0.68369152 0.67819544 0.68099116 0.39580412
  0.70013878 0.76493593 0.6816512  0.69665698]
 [0.52452933 0.76256868 0.76412228 0.75877956 0.76235189 0.48377747
  0.74169697 0.75430909 0.74040065 0.74191287]
 [0.40596006 0.70544358 0.71193608 0.70307326 0.70575583 0.40855639
  0.70984701 0.70996295 0.70636926 0.70954911]
 [0.29525385 0.65123249 0.65343832 0.64822141 0.65108343 0.17618707
  0.58077547 0.65579744 0.5494825  0.58030466]
 [0.47009555 0.74048539 0.748436   0.73161978 0.73899697 0.451737
  0.72353671 0.72370696 0.73181575 0.72338979]
 [0.33671405 0.67305024 0.67346302 0.66375717 0.67281272 0.50908791
  0.74487611 0.74568473 0.74874869 0.74453851]
 [0.28066741 0.63892932 0.64953065 0.63720548 0.63754627 0.3257421
  0.65620386 0.65617107 0.65489097 0.65580777]
 [0.76138423 0.88122512 0.89402347 0.88106182 0.88080658 0.56976073
  0.78270936 0.79043384 0.78000489 0.78268107]
 [0.27520348 0.6493804  0.69467655 0.63437262 0.64795577 0.20347146
  0.59258769 0.65070866 0.57250616 0.59207014]
 [0.33717901 0.6788721  0.67896248 0.67839466 0.67853496 0.35809428
  0.66945675 0.67110699 0.67194443 0.66894827]
 [0.15900995 0.56797791 0.58477227 0.56898945 0.56724456 0.33688821
  0.66366798 0.67343986 0.66744774 0.6626475 ]
 [0.41349006 0.70992766 0.72328856 0.70086828 0.70974905 0.37840218
  0.69612047 0.70876332 0.69066017 0.69539247]
 [0.2576356  0.63090926 0.6377258  0.62931077 0.62981271 0.23745005
  0.62329341 0.62875714 0.61275781 0.6225194 ]
 [0.25362525 0.6358974  0.66322835 0.6208568  0.63424754 0.41188887
  0.70696857 0.70879574 0.70628994 0.7070353 ]
 [0.29565091 0.64942368 0.69230662 0.62843384 0.6501344  0.26766667
  0.63930294 0.65739077 0.62867992 0.63839612]
 [0.25074272 0.61811314 0.63028717 0.61650484 0.61754622 0.41369076
  0.70887677 0.7327065  0.69823674 0.70691644]
 [0.4713245  0.73978551 0.74645515 0.73438813 0.73914318 0.34633322
  0.67400232 0.68563224 0.66079959 0.67353697]
 [0.24756549 0.61172232 0.79787556 0.5563709  0.61103321 0.37011983
  0.69426759 0.70171376 0.68633939 0.69248914]
 [0.49171492 0.74713811 0.78062066 0.74788418 0.74566036 0.43434433
  0.70947388 0.71310946 0.71346858 0.70954203]
 [0.2797283  0.6365935  0.67347846 0.62459629 0.63711082 0.23905889
  0.61510166 0.63776131 0.60578207 0.61341547]
 [0.06435446 0.54168597 0.66758839 0.47493837 0.5403761  0.03756631
  0.52148488 0.52157017 0.52440126 0.5203138 ]
 [0.16781529 0.58417652 0.58476146 0.59014946 0.58362471 0.13572459
  0.58090663 0.61381195 0.56414318 0.57946025]
 [0.1386305  0.55940599 0.57299213 0.56466311 0.55899202 0.13867139
  0.5639534  0.64558746 0.5420257  0.56119858]
 [0.14263082 0.57933319 0.580457   0.57353168 0.57875634 0.3129729
  0.66057091 0.66638258 0.6649397  0.66090812]
 [0.28863067 0.64841758 0.65381504 0.63580684 0.64784226 0.45055331
  0.7271944  0.72724564 0.72783455 0.7270784 ]
 [0.26088802 0.62558803 0.62716999 0.63112701 0.624788   0.49266648
  0.74435025 0.74725181 0.74100009 0.74384267]
 [0.42165685 0.70932809 0.74290412 0.70859565 0.70735931 0.31235104
  0.66166559 0.6617014  0.66619708 0.6613378 ]
 [0.09856455 0.54396074 0.58044002 0.53485755 0.54238178 0.32603367
  0.66349912 0.6781828  0.65786342 0.66387225]
 [0.25713806 0.61787748 0.64128609 0.62380843 0.61735261 0.2151814
  0.61239265 0.61498842 0.59926257 0.61177716]
 [0.39368729 0.70346723 0.71507334 0.69935764 0.70225094 0.35439204
  0.67538198 0.70526478 0.66738986 0.67550186]]
DT mean:
[0.31310077 0.6574256  0.68162688 0.64932401 0.65674139 0.33647249
 0.66814347 0.68509583 0.66211113 0.6674347 ]
---------------------------
---------------------------
RF performance:
[[0.46930923 0.72509506 0.72802995 0.73107759 0.72514524 0.4770616
  0.72432618 0.80965879 0.70636183 0.73516274]
 [0.61233085 0.80031995 0.80259379 0.79819688 0.80074303 0.55775509
  0.79582209 0.80455303 0.80067212 0.79519561]
 [0.49369503 0.74796494 0.75902115 0.74082438 0.75037419 0.46682049
  0.71796004 0.7178277  0.7182775  0.71744512]
 [0.38799386 0.68766509 0.6903443  0.67982465 0.68766521 0.25359855
  0.61075591 0.7091879  0.54875022 0.61669497]
 [0.56283844 0.77449056 0.79044002 0.78485054 0.77822256 0.56953195
  0.77187836 0.77274201 0.77410355 0.77209139]
 [0.41975264 0.71242597 0.71233905 0.70216401 0.71184934 0.56692941
  0.78206082 0.78415007 0.78057716 0.78225312]
 [0.33089396 0.67117056 0.68800834 0.65966136 0.67195442 0.39959076
  0.69191991 0.69190212 0.69457522 0.69158968]
 [0.80390866 0.89534301 0.91090937 0.89552405 0.89890199 0.63453768
  0.82691694 0.8351598  0.81756033 0.82828552]
 [0.35700037 0.66145567 0.72683959 0.64518565 0.66738689 0.23185027
  0.61246582 0.69313108 0.57074389 0.61675926]
 [0.39513975 0.69526793 0.69543616 0.70488229 0.69515335 0.38634495
  0.70338363 0.70759611 0.68275715 0.70374503]
 [0.18745733 0.60273515 0.62597653 0.59086746 0.60353025 0.42829481
  0.72075848 0.73980083 0.701687   0.72381654]
 [0.5320032  0.76983301 0.78294118 0.76219822 0.77085388 0.43704636
  0.7237778  0.73939941 0.73020447 0.72471148]
 [0.32291167 0.65939569 0.67152231 0.66754039 0.66034727 0.27279388
  0.64943358 0.65854562 0.64347823 0.64943279]
 [0.33647996 0.64967595 0.69464721 0.63263873 0.65340359 0.45251159
  0.73920051 0.74175544 0.73642564 0.73945332]
 [0.31316058 0.64245847 0.69779836 0.63584345 0.64627222 0.35600926
  0.65252572 0.67895785 0.63550121 0.65375986]
 [0.26916028 0.6439841  0.66407596 0.63268325 0.64535176 0.47609036
  0.73949862 0.77315733 0.72671858 0.74391479]
 [0.55657918 0.77928657 0.7860985  0.7736912  0.77951925 0.39147461
  0.69842192 0.70997839 0.6816228  0.69854228]
 [0.30454315 0.63740484 0.83634399 0.54609098 0.65043546 0.4429192
  0.72334926 0.73821214 0.72401417 0.72498989]
 [0.52218215 0.75257605 0.79433071 0.7459446  0.75612556 0.50659916
  0.75908154 0.76335032 0.76278771 0.75969955]
 [0.35225829 0.66329057 0.70837734 0.64997341 0.66747821 0.30566639
  0.63624465 0.67349545 0.63392601 0.63882361]
 [0.07376915 0.53387143 0.72527405 0.37817097 0.53248463 0.06179778
  0.51538907 0.51530801 0.54448136 0.51474445]
 [0.26686397 0.62600258 0.62598271 0.61784054 0.62498969 0.2345944
  0.60334366 0.64913386 0.57457154 0.6050398 ]
 [0.16635909 0.59205011 0.60989501 0.57393466 0.59261718 0.17893644
  0.60008216 0.71038135 0.53302965 0.60478818]
 [0.21807247 0.61058483 0.61184962 0.60904532 0.61021184 0.40074089
  0.68280351 0.68759765 0.69582048 0.68266676]
 [0.34243595 0.65052486 0.66166744 0.66423889 0.65058426 0.55888467
  0.77047599 0.77042149 0.77574579 0.77019852]
 [0.31303506 0.6445115  0.64912768 0.63190805 0.6446684  0.54321191
  0.75826108 0.76452216 0.76945139 0.75938205]
 [0.49142679 0.74952887 0.79276517 0.75645531 0.75547925 0.41022642
  0.72414931 0.72409758 0.70140077 0.7240385 ]
 [0.14874298 0.58266692 0.62714992 0.55003132 0.58334983 0.41701505
  0.70418819 0.72017755 0.68782537 0.70564809]
 [0.26720224 0.64922434 0.68055118 0.62723303 0.65141277 0.28709671
  0.6494381  0.6538243  0.63985685 0.64922363]
 [0.46763563 0.73494817 0.75117647 0.73634219 0.73625971 0.40510064
  0.6944952  0.73705574 0.68481783 0.70009392]]
RF mean:
[0.3761714  0.68485842 0.7167171  0.67082878 0.68675904 0.40370104
 0.6994136  0.7225027  0.68925819 0.70107301]
---------------------------
---------------------------
SVM performance:
[[0.38597156 0.68709628 0.70447121 0.65431213 0.68180802 0.28526815
  0.60863761 0.79396017 0.47080468 0.61784166]
 [0.4301931  0.7111811  0.7221229  0.69702159 0.71087715 0.41625504
  0.69572369 0.73861201 0.66623541 0.70208097]
 [0.48125077 0.72718099 0.75981627 0.68574093 0.72824656 0.34908571
  0.67731568 0.66993824 0.65217518 0.66173111]
 [0.26172587 0.62668276 0.64482631 0.57649467 0.61168997 0.
  0.5        0.71075498 0.         0.41546232]
 [0.50223867 0.73358363 0.77786784 0.69889244 0.74281331 0.47608342
  0.73678251 0.73978385 0.7320463  0.73658952]
 [0.43430489 0.71650217 0.7182075  0.71259248 0.71580627 0.54638074
  0.77168569 0.77550872 0.76914006 0.77263453]
 [0.1827176  0.5820744  0.64559364 0.47207062 0.55617907 0.37512329
  0.68754921 0.68759148 0.68667894 0.68719456]
 [0.77793348 0.87802463 0.90423344 0.873774   0.88865189 0.4744656
  0.73926459 0.74449282 0.7379311  0.73682617]
 [0.17277431 0.56745097 0.72174463 0.38339719 0.54144849 0.13183319
  0.55153988 0.71035973 0.35862948 0.52183852]
 [0.356463   0.67755815 0.67972209 0.67218169 0.67628375 0.35401876
  0.67378803 0.68485564 0.6571006  0.67175757]
 [0.09872003 0.54347311 0.61968967 0.39191333 0.50192366 0.39822012
  0.68437563 0.73154238 0.63620804 0.6859909 ]
 [0.46697678 0.72168768 0.75905049 0.70023522 0.72954858 0.34164599
  0.66476306 0.69738305 0.64702171 0.66846864]
 [0.31018964 0.64890669 0.6762143  0.62100409 0.64807696 0.1772547
  0.58294398 0.62244866 0.50715325 0.56355645]
 [0.138942   0.55727573 0.67620966 0.37911134 0.52013686 0.46709766
  0.72979303 0.73900108 0.71417971 0.72851767]
 [0.13010964 0.55215281 0.69191138 0.36124486 0.51714855 0.11539238
  0.54883377 0.64755597 0.34986052 0.49494179]
 [0.         0.5        0.59301528 0.         0.37225917 0.35343069
  0.65074047 0.75077196 0.56410372 0.6558471 ]
 [0.54010058 0.76740415 0.77902733 0.76351977 0.76961482 0.25916514
  0.61672088 0.67779064 0.52133482 0.59885428]
 [0.         0.5        0.84536977 0.         0.45810265 0.16990212
  0.57747099 0.63657094 0.48482311 0.55797443]
 [0.07171407 0.52699505 0.70094488 0.24703364 0.46839171 0.36492401
  0.6842397  0.682478   0.68371288 0.68154293]
 [0.32348739 0.64532893 0.72488652 0.58968964 0.65156091 0.2397314
  0.60440212 0.69309557 0.5031503  0.59349978]
 [0.         0.5        0.77276363 0.         0.43590883 0.08443017
  0.54220267 0.54240235 0.53843395 0.54041957]
 [0.31689686 0.65887529 0.65779064 0.65682606 0.65722468 0.0059087
  0.50230733 0.64560445 0.07159721 0.40050976]
 [0.         0.5        0.58595029 0.         0.36946246 0.
  0.5        0.7299861  0.         0.42196042]
 [0.13943046 0.56867835 0.5773074  0.54247859 0.55981686 0.33138351
  0.66010631 0.68093407 0.62957632 0.65610766]
 [0.24119786 0.61169562 0.65501312 0.52250862 0.58883976 0.53702043
  0.76855996 0.76846688 0.76763802 0.76814508]
 [0.15106167 0.57174726 0.59929288 0.45303008 0.52590382 0.43600382
  0.71387232 0.72724101 0.70373623 0.71571482]
 [0.48642669 0.71684378 0.80100973 0.67651577 0.73697191 0.39811687
  0.69835893 0.70017292 0.68041042 0.69170001]
 [0.00444981 0.50173865 0.63656786 0.06886577 0.39871181 0.43974071
  0.7110383  0.74214451 0.69170191 0.71619029]
 [0.10013277 0.5417833  0.646784   0.32420691 0.48136469 0.30807737
  0.65019188 0.66563996 0.62641034 0.64651953]
 [0.45214639 0.72206524 0.74332407 0.71497116 0.72549137 0.3821104
  0.67852533 0.737434   0.64872237 0.68715401]]
SVM mean:
[0.26525186 0.62546622 0.70069096 0.48132109 0.59900882 0.307269
 0.64705779 0.70248407 0.55668389 0.6332524 ]
---------------------------
---------------------------
GBM performance:
[[ 3.18077872e-01  6.52935320e-01  6.74647213e-01  5.98517592e-01
   6.38618681e-01  2.57393832e-01  5.95286302e-01  7.91211981e-01
   4.36005069e-01  5.98035814e-01]
 [ 5.25980946e-01  7.58921797e-01  7.68063918e-01  7.49694084e-01
   7.60587302e-01  2.94618901e-01  6.30752525e-01  7.02115177e-01
   5.32063419e-01  6.16034494e-01]
 [ 4.74932774e-01  7.25333366e-01  7.55879265e-01  6.87998530e-01
   7.26377880e-01  4.01809411e-01  7.01202029e-01  7.00954145e-01
   7.00012496e-01  7.00322802e-01]
 [ 3.51780420e-01  6.71212819e-01  6.86422727e-01  6.35424949e-01
   6.62893398e-01 -7.79891448e-04  4.99723757e-01  7.10362822e-01
   0.00000000e+00  4.15327867e-01]
 [ 5.28795957e-01  7.47022189e-01  7.88872935e-01  7.16726795e-01
   7.57454166e-01  5.22698742e-01  7.59504878e-01  7.64116103e-01
   7.48688566e-01  7.58262254e-01]
 [ 4.47349196e-01  7.23187779e-01  7.24492821e-01  7.20674631e-01
   7.22839241e-01  5.42706166e-01  7.67298587e-01  7.75897792e-01
   7.56503533e-01  7.68325476e-01]
 [ 1.87979212e-01  5.84059497e-01  6.53442952e-01  4.47580053e-01
   5.48005413e-01  3.86364875e-01  6.93227116e-01  6.93106376e-01
   6.85481623e-01  6.89808018e-01]
 [ 7.63386109e-01  8.58404552e-01  9.01483712e-01  8.47899073e-01
   8.80560430e-01  5.24717316e-01  7.51189136e-01  7.80983480e-01
   7.33232911e-01  7.58700788e-01]
 [ 1.17285693e-01  5.44812701e-01  7.09189440e-01  3.14557199e-01
   5.01208010e-01  1.59568091e-02  5.05833776e-01  6.93095569e-01
   9.73729947e-02  4.22497571e-01]
 [ 3.72521553e-01  6.86438780e-01  6.87207040e-01  6.85259840e-01
   6.86268522e-01  3.55630634e-01  6.73372170e-01  6.87997530e-01
   6.44427103e-01  6.67744787e-01]
 [ 1.22846108e-02  5.05159991e-01  6.02034893e-01  1.62092205e-01
   4.00765233e-01  4.72466090e-01  7.20821215e-01  7.61772426e-01
   6.86572236e-01  7.27114539e-01]
 [ 5.17674507e-01  7.45097915e-01  7.82578354e-01  7.24001938e-01
   7.54794700e-01  1.31857782e-03  5.00547410e-01  6.08713911e-01
   1.72384802e-02  3.81061926e-01]
 [ 2.94493723e-01  6.36329568e-01  6.80548093e-01  5.59688354e-01
   6.21241890e-01  6.40996879e-02  5.28103304e-01  5.92626216e-01
   2.41364121e-01  4.24524712e-01]
 [ 8.91116405e-02  5.35991441e-01  6.67577582e-01  2.67744051e-01
   4.71607215e-01  4.44722370e-01  7.19119981e-01  7.28406670e-01
   7.01890791e-01  7.17761737e-01]
 [ 2.52545933e-02  5.09754902e-01  6.73859812e-01  9.74204552e-02
   4.22226062e-01  1.20337732e-01  5.50717503e-01  6.51086923e-01
   3.43969995e-01  4.93761770e-01]
 [ 6.09833289e-03  5.02572160e-01  5.94980701e-01  5.32528594e-02
   3.78389656e-01  3.26503020e-01  6.37578622e-01  7.40572796e-01
   5.43287316e-01  6.38934611e-01]
 [ 6.08551002e-01  8.03646698e-01  8.11225876e-01  8.01171705e-01
   8.04514558e-01  2.80660534e-01  6.27491613e-01  6.85252432e-01
   5.43319016e-01  6.13941565e-01]
 [ 0.00000000e+00  5.00000000e-01  8.45369770e-01  0.00000000e+00
   4.58102649e-01  3.58338817e-01  6.65371950e-01  7.15431527e-01
   6.09320907e-01  6.63123697e-01]
 [ 0.00000000e+00  5.00000000e-01  6.87991354e-01  0.00000000e+00
   4.07579254e-01  4.32795956e-01  7.09691070e-01  7.29604755e-01
   6.76973878e-01  7.05867254e-01]
 [ 1.53527185e-01  5.61684508e-01  6.92698780e-01  3.61423641e-01
   5.19763240e-01  1.40185684e-01  5.56958013e-01  6.72678709e-01
   3.47932124e-01  5.04145835e-01]
 [ 5.27831737e-03  5.01724138e-01  7.73547939e-01  2.62612866e-02
   4.39491939e-01  7.99759552e-02  5.40766476e-01  5.40824456e-01
   5.36776035e-01  5.38981574e-01]
 [ 2.98427995e-01  6.50207299e-01  6.47168442e-01  6.40818064e-01
   6.44097183e-01  1.23389070e-02  5.04820369e-01  6.47569863e-01
   9.41771322e-02  4.05290553e-01]
 [ 1.46645953e-01  5.65863589e-01  6.28737070e-01  4.29236707e-01
   5.26429051e-01  4.20054201e-03  5.01449275e-01  7.30770418e-01
   2.40771706e-02  4.25009276e-01]
 [ 1.41959557e-01  5.69247512e-01  5.85556585e-01  4.70892940e-01
   5.28596665e-01  3.81566856e-01  6.88691274e-01  6.97793732e-01
   6.81563207e-01  6.89142879e-01]
 [ 2.41751695e-01  6.09468391e-01  6.61298441e-01  4.76658456e-01
   5.68902544e-01  5.41439924e-01  7.71008174e-01  7.71202717e-01
   7.69195661e-01  7.70772884e-01]
 [ 2.98363931e-01  6.45430876e-01  6.58925428e-01  6.21431138e-01
   6.40475397e-01  4.93371938e-01  7.43123738e-01  7.53932376e-01
   7.35416960e-01  7.44918640e-01]
 [ 4.28716245e-01  6.82055426e-01  7.88852864e-01  6.12873123e-01
   7.00435470e-01  4.25707372e-01  7.12683615e-01  7.13124904e-01
   7.11527391e-01  7.12309345e-01]
 [ 1.08685056e-02  5.04341982e-01  6.40511039e-01  4.22485757e-02
   3.98155578e-01  3.91388122e-01  6.81882596e-01  7.29206423e-01
   6.35126167e-01  6.83349038e-01]
 [ 1.02908510e-01  5.43134516e-01  6.50299521e-01  3.04026321e-01
   4.76232666e-01  3.01866895e-01  6.45052393e-01  6.66013587e-01
   6.01923785e-01  6.35270147e-01]
 [ 2.77479972e-01  6.21722804e-01  6.98195152e-01  5.09224664e-01
   6.02880678e-01  3.09795824e-01  6.31439226e-01  7.33903042e-01
   5.29061467e-01  6.28531617e-01]]
GBM mean:
[0.25824953 0.62152542 0.70405532 0.45215997 0.58831649 0.29613992
 0.64049027 0.70567763 0.51215005 0.61662912]
---------------------------
---------------------------
BDDAE performance:
[[ 0.24099617  0.61852007  0.63313725  0.56509002  0.5989858   0.01545063
   0.50573023  0.7427451   0.05857228  0.44093978]
 [ 0.45575963  0.73080464  0.72607843  0.72431223  0.72449035  0.52437843
   0.7535      0.78078431  0.74224281  0.76059092]
 [ 0.18147934  0.58451411  0.62705882  0.48596145  0.55511773  0.25721307
   0.62741625  0.63294118  0.60730865  0.62051669]
 [ 0.05447513  0.52613201  0.54784314  0.43564471  0.49127154  0.21058802
   0.5906488   0.71941176  0.50317003  0.59417817]
 [ 0.48105349  0.73300654  0.75784314  0.71858432  0.73752578  0.39976022
   0.69927938  0.70117647  0.69573479  0.69869503]
 [ 0.58850514  0.79433637  0.79431373  0.79295883  0.7937715   0.14676247
   0.57210089  0.59098039  0.44092788  0.52610016]
 [ 0.11481277  0.55518726  0.61058824  0.42007258  0.51768732  0.11254902
   0.55627451  0.55627451  0.52008642  0.53825845]
 [ 0.68895963  0.83764706  0.86745098  0.82658597  0.84251119  0.25634117
   0.62114842  0.67196078  0.51136885  0.59899755]
 [ 0.58892479  0.75697645  0.84529412  0.71753013  0.78795758  0.60903931
   0.7806045   0.84882353  0.75186299  0.79978288]
 [ 0.21340107  0.60671171  0.60686275  0.60438801  0.60557274  0.28709489
   0.64411605  0.64470588  0.64066087  0.64190952]
 [ 0.1866886   0.58312688  0.65392157  0.46377937  0.5559573   0.34341924
   0.65944421  0.70509804  0.6107807   0.65837168]
 [ 0.13710504  0.56041935  0.63901961  0.41255871  0.52142012  0.51093427
   0.76987097  0.75431373  0.76277393  0.75080209]
 [ 0.39473033  0.69283335  0.71196078  0.67307057  0.69181226  0.34796338
   0.67393417  0.68058824  0.6701396   0.67315267]
 [ 0.1705432   0.57492424  0.67        0.4670122   0.56065956  0.29145149
   0.64480153  0.64960784  0.63877181  0.6440091 ]
 [-0.00117257  0.49956012  0.66803922  0.          0.40049337  0.30339983
   0.65120879  0.67882353  0.62476438  0.64503613]
 [ 0.20275308  0.59264996  0.64862745  0.49702404  0.57020993  0.21994569
   0.58863636  0.71607843  0.42031842  0.56123664]
 [ 0.65090267  0.83738128  0.82411765  0.82966577  0.82208261  0.26758593
   0.61960806  0.68392157  0.51103119  0.59717449]
 [ 0.11987423  0.55122617  0.84431373  0.24064008  0.53371075  0.17692538
   0.58566205  0.6245098   0.50198094  0.56721869]
 [ 0.25477926  0.60727033  0.73431373  0.49743272  0.60583966  0.48188935
   0.73634317  0.74843137  0.72464256  0.73784973]
 [ 0.28437276  0.62259378  0.72196078  0.52625383  0.61893586  0.04052679
   0.51732339  0.63745098  0.15906085  0.43271915]
 [ 0.07994543  0.53593121  0.76509804  0.21355459  0.50126532  0.22320622
   0.61157165  0.61176471  0.61062995  0.61121087]
 [ 0.13082132  0.56615277  0.56529412  0.46697405  0.52552803  0.
   0.5         0.64509804  0.          0.39213349]
 [ 0.10043492  0.5462228   0.60686275  0.370864    0.49612557  0.46006533
   0.70717625  0.80921569  0.66935469  0.72652448]
 [ 0.22436819  0.61052331  0.61784314  0.59156012  0.60525369  0.31547276
   0.65391884  0.66980392  0.63622019  0.65294347]
 [ 0.09242928  0.54531348  0.58784314  0.33435441  0.48213271  0.17863977
   0.58930653  0.58941176  0.57834579  0.58419875]
 [ 0.31199679  0.65148936  0.66784314  0.61447623  0.6425479   0.45313184
   0.724       0.73372549  0.71708216  0.72502897]
 [ 0.51345796  0.73540815  0.8054902   0.70804486  0.75330827  0.53334619
   0.76582687  0.76745098  0.75272516  0.76207746]
 [ 0.09030144  0.54087734  0.64647059  0.25733089  0.48352129  0.41172554
   0.70306677  0.72098039  0.69677992  0.70539998]
 [ 0.25700091  0.61618558  0.68411765  0.5463363   0.61140313  0.38135924
   0.68440678  0.70333333  0.65097883  0.67947833]
 [ 0.3483605   0.65856452  0.71627451  0.5987454   0.65793521  0.08086516
   0.53326638  0.66705882  0.22047322  0.46465073]]
BDDAE mean:
[0.27193535 0.62908301 0.69319608 0.52002688 0.60983447 0.29470102
 0.64233973 0.68954902 0.554293   0.62637287]
---------------------------
---------------------------
DUMMY performance:
[[0.         0.5        0.54199475 0.         0.35148888 0.
  0.5        0.7433287  0.         0.4263841 ]
 [0.         0.5        0.53963872 0.         0.35049618 0.
  0.5        0.60832175 0.         0.37823365]
 [0.         0.5        0.56789563 0.         0.36220203 0.
  0.5        0.5204076  0.         0.34228094]
 [0.         0.5        0.53728424 0.         0.34950199 0.
  0.5        0.71075498 0.         0.41546232]
 [0.         0.5        0.60007874 0.         0.37503056 0.
  0.5        0.51844681 0.         0.34143182]
 [0.         0.5        0.51295044 0.         0.33903933 0.
  0.5        0.53453759 0.         0.3483372 ]
 [0.         0.5        0.5937996  0.         0.3725678  0.
  0.5        0.50078431 0.         0.33368101]
 [0.         0.5        0.66601204 0.         0.39976393 0.
  0.5        0.59419176 0.         0.37272212]
 [0.         0.5        0.68524317 0.         0.40661334 0.
  0.5        0.69034584 0.         0.40840491]
 [0.         0.5        0.5133426  0.         0.33921092 0.
  0.5        0.53846225 0.         0.34999961]
 [0.         0.5        0.60164891 0.         0.37564271 0.
  0.5        0.59419176 0.         0.37272212]
 [0.         0.5        0.60832175 0.         0.37823365 0.
  0.5        0.60871391 0.         0.37838497]
 [0.         0.5        0.573392   0.         0.36443001 0.
  0.5        0.56907519 0.         0.3626817 ]
 [0.         0.5        0.64638876 0.         0.39260971 0.
  0.5        0.53178941 0.         0.34716794]
 [0.         0.5        0.66836807 0.         0.40061121 0.
  0.5        0.61773969 0.         0.38185285]
 [0.         0.5        0.59301528 0.         0.37225917 0.
  0.5        0.65463023 0.         0.3956353 ]
 [0.         0.5        0.58398641 0.         0.36868135 0.
  0.5        0.59301528 0.         0.37225917]
 [0.         0.5        0.84536977 0.         0.45810265 0.
  0.5        0.59576038 0.         0.3733394 ]
 [0.         0.5        0.68799135 0.         0.40757925 0.
  0.5        0.54984406 0.         0.35477332]
 [0.         0.5        0.65345376 0.         0.3952047  0.
  0.5        0.63343832 0.         0.38779374]
 [0.         0.5        0.77276363 0.         0.43590883 0.
  0.5        0.5035325  0.         0.33489878]
 [0.         0.5        0.51491431 0.         0.33989595 0.
  0.5        0.64521229 0.         0.392175  ]
 [0.         0.5        0.58595029 0.         0.36946246 0.
  0.5        0.7299861  0.         0.42196042]
 [0.         0.5        0.52590397 0.         0.34465057 0.
  0.5        0.55416088 0.         0.35656529]
 [0.         0.5        0.56828779 0.         0.36236181 0.
  0.5        0.50314034 0.         0.3347254 ]
 [0.         0.5        0.53963872 0.         0.35049618 0.
  0.5        0.55808553 0.         0.35818604]
 [0.         0.5        0.67935773 0.         0.40453381 0.
  0.5        0.50588698 0.         0.33593932]
 [0.         0.5        0.63736298 0.         0.38926116 0.
  0.5        0.59772426 0.         0.37410903]
 [0.         0.5        0.62127219 0.         0.38319971 0.
  0.5        0.54552725 0.         0.35297142]
 [0.         0.5        0.60792805 0.         0.37808143 0.
  0.5        0.6495291  0.         0.39376574]]
DUMMY mean:
[0.         0.5        0.60911852 0.         0.37723738 0.
 0.5        0.59001884 0.         0.36996149]
---------------------------
Current folder: C:\Users\Javier\Dropbox\c_sldl_1_2_10
-------------------------------------
----- RESULTS from .csv files ------
-------------------------------------
---------------------------
ALG Means: 
-rows: alg : KNN = 0; DT = 1; RF = 2; SVM = 3; GBM = 4; BDDAE = 5; DUMMY = 5
columns:
'val_cohen','val_uar', 'val_acc', 'val_gm',  'val_f1',  'aro_cohen','aro_uar', 'aro_acc', 'aro_gm',  'aro_f1'
-------------------------------------------------------------
  v_c   v_u   v_a   v_g   v_f1  a_c   a_u   a_a   a_g   a_f1
[[0.349 0.67  0.708 0.65  0.673 0.378 0.686 0.712 0.672 0.687]
 [0.313 0.657 0.682 0.649 0.657 0.336 0.668 0.685 0.662 0.667]
 [0.376 0.685 0.717 0.671 0.687 0.404 0.699 0.723 0.689 0.701]
 [0.265 0.625 0.701 0.481 0.599 0.307 0.647 0.702 0.557 0.633]
 [0.258 0.622 0.704 0.452 0.588 0.296 0.64  0.706 0.512 0.617]
 [0.272 0.629 0.693 0.52  0.61  0.295 0.642 0.69  0.554 0.626]
 [0.    0.5   0.609 0.    0.377 0.    0.5   0.59  0.    0.37 ]]
-------------------------------------------------------------
Standard Deviation of each metric:
[[0.157 0.078 0.075 0.099 0.08  0.133 0.067 0.06  0.08  0.067]
 [0.142 0.073 0.072 0.078 0.073 0.121 0.06  0.054 0.065 0.06 ]
 [0.153 0.075 0.071 0.096 0.076 0.129 0.067 0.06  0.076 0.067]
 [0.198 0.097 0.077 0.253 0.13  0.154 0.078 0.051 0.207 0.101]
 [0.207 0.1   0.074 0.262 0.136 0.18  0.089 0.056 0.244 0.123]
 [0.187 0.092 0.087 0.19  0.112 0.159 0.079 0.066 0.199 0.103]
 [0.    0.    0.075 0.    0.028 0.    0.    0.068 0.    0.026]]
-------------------------------------------------------------
std_dev/mean [percentage]:
[[45. 12. 11. 15. 12. 35. 10.  8. 12. 10.]
 [45. 11. 11. 12. 11. 36.  9.  8. 10.  9.]
 [41. 11. 10. 14. 11. 32. 10.  8. 11. 10.]
 [75. 16. 11. 53. 22. 50. 12.  7. 37. 16.]
 [80. 16. 11. 58. 23. 61. 14.  8. 48. 20.]
 [69. 15. 13. 37. 18. 54. 12. 10. 36. 16.]
 [ 0.  0. 12.  0.  7.  0.  0. 12.  0.  7.]]
-------------------------------------
Current folder: C:\Users\Javier\Dropbox\c_sldl_1_2_10
-------------------------------------
----- RESULTS ------
-------------------------------------
Window size (sec):  0.992
step (sec):  0.496
overlap:  True
perc. of overlap:  50.0
overlap duration (sec):  0.496
Number of windows / instances:  2548
Elapsed time: 1040.698259540399 minutes
Elapsed time: 17.34497099233998 hours
