2024-03-19 01:52:10.773533: I tensorflow/core/util/port.cc:113] oneDNN custom operations are on. You may see slightly different numerical results due to floating-point round-off errors from different computation orders. To turn them off, set the environment variable `TF_ENABLE_ONEDNN_OPTS=0`.
2024-03-19 01:52:14.626544: I tensorflow/core/util/port.cc:113] oneDNN custom operations are on. You may see slightly different numerical results due to floating-point round-off errors from different computation orders. To turn them off, set the environment variable `TF_ENABLE_ONEDNN_OPTS=0`.
2024-03-19 01:52:24.218614: I tensorflow/core/platform/cpu_feature_guard.cc:210] This TensorFlow binary is optimized to use available CPU instructions in performance-critical operations.
To enable the following instructions: AVX2 FMA, in other operations, rebuild TensorFlow with the appropriate compiler flags.
    
    
-------------------------------
participant:  1
-------------------------------
    
    
participant:  1
corriendo en PC gamer:
Window size (sec):  25.0
step (sec):  12.5
overlap:  True
perc. of overlap:  50.0
overlap duration (sec):  12.5
Nearest multiple of 16 to 25000 is: 24992
Nearest multiple of 16 to 12500 is: 12496
['gsr_chunks', 'ppg_chunks', 'val_chunks', 'aro_chunks', 'time_chunks', 'tag_chunks', 'video']
C:\Users\Javier\Dropbox\c_sldl_1_2_19\functions.py:880: FutureWarning: ChainedAssignmentError: behaviour will change in pandas 3.0!

[1m1/1[0m [32m━━━━━━━━━━━━━━━━━━━━[0m[37m[0m [1m0s[0m 125ms/step
predicted [0.0037098  0.93352455 0.8155261  0.84215736 0.00647133 0.58158934
 0.9127371  0.80804414 0.77834684 0.6147865  0.7838601  0.72736776
 0.44020495 0.88815635 0.10985734 0.961059   0.18861674 0.03296012]
predicted [0 1 1 1 0 1 1 1 1 1 1 1 0 1 0 1 0 0]
expected [False False  True  True False  True  True  True  True False False  True
  True  True False  True  True False]
accuracy: 0.7222222222222222
confusion matrix: 
[[4 3]
 [2 9]]
              precision    recall  f1-score   support

       False       0.67      0.57      0.62         7
        True       0.75      0.82      0.78        11

    accuracy                           0.72        18
   macro avg       0.71      0.69      0.70        18
weighted avg       0.72      0.72      0.72        18

macro avg f1-score: 0.6989966555183946
macro avg (UAR): 0.6948051948051948
Sensitivity:  0.5714285714285714
Specificity:  0.8181818181818182
g-mean:  0.6837634587578277
-------- Model Performance ----------: 
accuracy:  [0.72222222 0.72222222 0.72222222 0.72222222 0.83333333 0.61111111
 0.66666667 0.66666667 0.61111111 0.72222222]
gmean:  [0.68376346 0.62418778 0.72074997 0.72074997 0.80582296 0.48349378
 0.67419986 0.68376346 0.55829053 0.68376346]
f1_score:  [0.69899666 0.67272727 0.71428571 0.71428571 0.81939799 0.54181818
 0.6625     0.66666667 0.57859532 0.69899666]
UAR:  [0.69480519 0.66883117 0.72077922 0.72077922 0.81168831 0.55194805
 0.67532468 0.7012987  0.57792208 0.69480519]
Cohen Kappa score:  [0.4        0.36619718 0.43037975 0.43037975 0.64       0.11267606
 0.33333333 0.36470588 0.16       0.4       ]
arousal and valece = ok
------------- Evaluating model --------------
-------------------------------------
-------------------------------------
participant:  30
-------------------------------------
----- RESULTS ------
-------------------------------------
Window size (sec):  24.992
step (sec):  12.496
overlap:  True
perc. of overlap:  50.0
overlap duration (sec):  12.496
Number of windows / instances:  88
-rows: alg : KNN = 0; DT = 1; RF = 2; SVM = 3; GBM = 4; BDDAE = 5; DUMMY = 5
columns:
'val_cohen','val_uar', 'val_acc', 'val_gm',  'val_f1',  'aro_cohen','aro_uar', 'aro_acc', 'aro_gm',  'aro_f1'
-------------------------------------------------------------
  v_c   v_u   v_a   v_g   v_f1  a_c   a_u   a_a   a_g   a_f1
[[0.93  0.968 0.965 0.965 0.965 0.476 0.727 0.775 0.662 0.724]
 [0.77  0.863 0.883 0.882 0.862 0.472 0.797 0.797 0.795 0.781]
 [0.814 0.905 0.907 0.89  0.901 0.44  0.773 0.797 0.682 0.754]
 [0.256 0.617 0.706 0.368 0.567 0.    0.5   0.647 0.    0.393]
 [0.685 0.847 0.872 0.825 0.848 0.502 0.742 0.788 0.683 0.743]
 [0.364 0.682 0.7   0.664 0.677 0.026 0.508 0.561 0.434 0.496]
 [0.    0.5   0.614 0.    0.38  0.    0.5   0.647 0.    0.393]]
participant performance loaded
    
    
-------------------------------
LAST participant's saved data: 
30
-------------------------------
    
    
---------------------------
KNN performance:
[[ 0.60915579  0.8075      0.80833333  0.77125171  0.79847042  0.5357764
   0.73571429  0.86527778  0.6551948   0.75895147]
 [ 0.55233737  0.77583333  0.77638889  0.74994513  0.76329559  0.53012821
   0.75583333  0.79583333  0.72330672  0.75738817]
 [ 0.51722352  0.75333333  0.775       0.71172476  0.74380259  0.34001468
   0.67        0.66805556  0.63730232  0.65267316]
 [ 0.51960382  0.7575      0.76111111  0.73937294  0.75164141 -0.06941464
   0.47142857  0.65833333  0.13093073  0.44094322]
 [ 0.504494    0.74666667  0.77222222  0.72885741  0.74856005  0.41312991
   0.71        0.70277778  0.67166851  0.68709235]
 [ 0.56604967  0.785       0.78194444  0.76234536  0.77348485  0.62375275
   0.815       0.80694444  0.79801371  0.80233045]
 [ 0.563002    0.78        0.80555556  0.75892872  0.77679959  0.36822876
   0.685       0.68333333  0.6576622   0.66981602]
 [ 0.76363636  0.86666667  0.89861111  0.84966965  0.87692308  0.76460451
   0.88583333  0.88472222  0.87626105  0.87792097]
 [ 0.4151049   0.70833333  0.77361111  0.5979384   0.69309191  0.28232767
   0.64166667  0.71388889  0.53870083  0.63201299]
 [ 0.1035983   0.5525      0.55555556  0.50464712  0.53840548  0.38776346
   0.69083333  0.69305556  0.67938806  0.68691558]
 [ 0.28495592  0.64083333  0.68194444  0.53608154  0.62094322  0.41107561
   0.69416667  0.74861111  0.59190633  0.67755078]
 [ 0.69265235  0.83166667  0.86527778  0.81448689  0.84305445  0.40246533
   0.70833333  0.71388889  0.64675571  0.68257659]
 [ 0.44318087  0.7275      0.725       0.68824426  0.70343989  0.21966013
   0.60583333  0.625       0.57415754  0.59987013]
 [-0.01172031  0.49285714  0.62222222  0.24222322  0.47396062  0.60740094
   0.8075      0.80138889  0.78506727  0.79268759]
 [ 0.27858272  0.64285714  0.73194444  0.4816716   0.61941059  0.36062121
   0.68666667  0.72777778  0.59967362  0.67350316]
 [ 0.21823775  0.60916667  0.65833333  0.49050375  0.58594544  0.32937063
   0.64166667  0.72638889  0.5279049   0.63347375]
 [ 0.29503892  0.6425      0.67083333  0.5956748   0.62981102  0.36968286
   0.68166667  0.71527778  0.61085576  0.66864552]
 [ 0.00908385  0.51785714  0.84027778  0.09354143  0.4890091   0.4338533
   0.7225      0.72638889  0.71388248  0.7137518 ]
 [ 0.40569982  0.69642857  0.7625      0.66479465  0.69591242  0.33963365
   0.66916667  0.68194444  0.60493074  0.65226634]
 [ 0.35999001  0.675       0.70416667  0.61104     0.66052697  0.32930278
   0.66166667  0.70833333  0.5766713   0.64384615]
 [ 0.13387916  0.56785714  0.71388889  0.385714    0.55638736  0.01108832
   0.50833333  0.51527778  0.44215201  0.49378427]
 [ 0.42916066  0.7125      0.71527778  0.6923429   0.70493146  0.40277065
   0.70333333  0.72777778  0.67887338  0.69628372]
 [ 0.14492979  0.57166667  0.60138889  0.47827659  0.5453663   0.29472457
   0.63928571  0.7625      0.4522441   0.6213499 ]
 [ 0.26323375  0.63        0.625       0.59713745  0.61808081  0.62801619
   0.81        0.81944444  0.79603688  0.80982684]
 [ 0.66050262  0.82666667  0.84027778  0.80225743  0.82313492  0.59870008
   0.8025      0.79722222  0.79503816  0.79597042]
 [ 0.39967962  0.6975      0.70416667  0.66735105  0.68669025  0.39534667
   0.69666667  0.70555556  0.67684017  0.69132395]
 [ 0.55806324  0.76785714  0.84027778  0.68886473  0.76869963  0.5680193
   0.785       0.78472222  0.77685033  0.78022727]
 [ 0.30134374  0.65083333  0.67916667  0.62386029  0.64406926  0.51385529
   0.755       0.77638889  0.71801175  0.74451326]
 [ 0.02607656  0.5075      0.54722222  0.39903046  0.48384754  0.4247031
   0.70583333  0.72638889  0.67229231  0.70179654]
 [ 0.92997186  0.9675      0.96527778  0.96548798  0.96450216  0.47596903
   0.7275      0.775       0.66217076  0.72391359]]
KNN mean:
[0.39789162 0.69699603 0.74009259 0.62310887 0.68607328 0.40975238
 0.70246429 0.73458333 0.64235815 0.69210687]
---------------------------
---------------------------
DT performance:
[[0.52749658 0.755      0.75972222 0.72160494 0.74126346 0.52415177
  0.72142857 0.78611111 0.600261   0.71625458]
 [0.49630204 0.74583333 0.75138889 0.69882804 0.7438925  0.35210307
  0.69666667 0.70416667 0.66931155 0.67181735]
 [0.473306   0.73083333 0.73194444 0.69896303 0.71486486 0.3576021
  0.6725     0.67222222 0.62374735 0.66059524]
 [0.46403996 0.7275     0.73888889 0.73350286 0.72446248 0.07318524
  0.54404762 0.67361111 0.33375333 0.53193806]
 [0.52389382 0.7625     0.7625     0.72062665 0.7445757  0.29815234
  0.6975     0.69166667 0.63854276 0.67549062]
 [0.42949074 0.7375     0.73888889 0.6650732  0.72944084 0.49256926
  0.7225     0.71527778 0.68257468 0.70516955]
 [0.33772824 0.63833333 0.66111111 0.58628984 0.62860889 0.24151627
  0.68       0.68055556 0.62017037 0.66568182]
 [0.97272727 0.94285714 0.95555556 0.94494235 0.94016484 0.66939942
  0.8425     0.84166667 0.82132565 0.83438922]
 [0.3595671  0.66666667 0.70555556 0.62375085 0.65801199 0.41050616
  0.69166667 0.71666667 0.62388997 0.67854645]
 [0.24869781 0.645      0.64861111 0.60027114 0.63309524 0.49356549
  0.7        0.70694444 0.71974902 0.69056999]
 [0.26287046 0.6425     0.67222222 0.58214112 0.62851204 0.36920842
  0.6975     0.71805556 0.58496238 0.68635836]
 [0.64977962 0.81833333 0.83333333 0.80555142 0.82057609 0.52540214
  0.75333333 0.74722222 0.7289656  0.72914502]
 [0.20313187 0.5675     0.58055556 0.55278523 0.55822511 0.19900481
  0.64583333 0.65       0.53722097 0.63837302]
 [0.08100233 0.53095238 0.625      0.41502516 0.52323343 0.37388685
  0.69       0.68888889 0.57903677 0.67427128]
 [0.21965368 0.54404762 0.60416667 0.48225644 0.53410756 0.27003497
  0.63083333 0.65694444 0.55456998 0.61625153]
 [0.17197531 0.65166667 0.67777778 0.57895688 0.63777972 0.42325841
  0.72166667 0.74027778 0.71962651 0.7088542 ]
 [0.68689731 0.82       0.83888889 0.80063651 0.81555694 0.44337117
  0.70666667 0.71527778 0.67117209 0.70056999]
 [0.11740683 0.55535714 0.82916667 0.08660254 0.52605742 0.39398206
  0.71416667 0.7375     0.71292478 0.7120671 ]
 [0.47941602 0.76309524 0.79722222 0.6860813  0.7473643  0.59168505
  0.80416667 0.80277778 0.7990849  0.79683622]
 [0.12590909 0.575      0.61527778 0.42965614 0.53317682 0.19594156
  0.56583333 0.58194444 0.50514285 0.53443196]
 [0.00786056 0.50833333 0.64861111 0.32387814 0.48786089 0.06640436
  0.57083333 0.56944444 0.4938228  0.55352287]
 [0.3628494  0.725      0.72916667 0.61106796 0.71106144 0.31341874
  0.65916667 0.68055556 0.55815179 0.64673882]
 [0.19180877 0.65583333 0.66944444 0.58376648 0.65333333 0.65139035
  0.74642857 0.81944444 0.71325043 0.7511347 ]
 [0.35925623 0.6725     0.66944444 0.64787262 0.66297619 0.43850087
  0.70583333 0.71666667 0.72779449 0.70397186]
 [0.55672608 0.77416667 0.78611111 0.74809223 0.77318182 0.54287992
  0.785      0.78472222 0.75456147 0.78114719]
 [0.14419847 0.61       0.61388889 0.57384571 0.59230603 0.39973275
  0.70416667 0.70555556 0.59197246 0.69351371]
 [0.55783926 0.79166667 0.8375     0.7775025  0.7987346  0.65169751
  0.795      0.79444444 0.80338913 0.7897619 ]
 [0.0629304  0.53166667 0.56805556 0.49346915 0.51601399 0.4023027
  0.67916667 0.68472222 0.64233764 0.66660728]
 [0.21859698 0.62833333 0.64861111 0.56367628 0.61269397 0.35106596
  0.63333333 0.64583333 0.59969529 0.62179487]
 [0.76975208 0.86333333 0.88333333 0.88194793 0.86198052 0.47196225
  0.79666667 0.79722222 0.79525089 0.78103424]]
DT mean:
[0.36877034 0.68604365 0.71939815 0.62062215 0.67510377 0.39959607
 0.69914683 0.71421296 0.6468753  0.68722797]
---------------------------
---------------------------
RF performance:
[[ 0.75211069  0.8075      0.80694444  0.83674354  0.79910534  0.56474771
   0.7         0.80833333  0.58970227  0.7136859 ]
 [ 0.49428844  0.78583333  0.79583333  0.62670336  0.78219336  0.48275058
   0.775       0.78472222  0.73605644  0.77102814]
 [ 0.41455278  0.6925      0.70833333  0.72898728  0.67754163  0.39736302
   0.7475      0.74722222  0.71319656  0.74497835]
 [ 0.48704655  0.72        0.725       0.67984265  0.71876623 -0.02245624
   0.50952381  0.65972222  0.4011253   0.49766941]
 [ 0.63430896  0.82        0.84166667  0.73666716  0.81550644  0.4791467
   0.7575      0.75        0.72657232  0.73858586]
 [ 0.47868842  0.7725      0.775       0.72981638  0.75652431  0.57680153
   0.7875      0.78194444  0.6955059   0.77158369]
 [ 0.40552448  0.7375      0.75972222  0.73135732  0.73027778  0.4530193
   0.7375      0.74027778  0.66571986  0.7275777 ]
 [ 0.8625974   0.95119048  0.96527778  0.96329269  0.95179487  0.56997241
   0.78        0.79583333  0.76395987  0.77798646]
 [ 0.46561772  0.74166667  0.78194444  0.5884068   0.73874958  0.3502997
   0.78333333  0.79861111  0.68494823  0.75960872]
 [ 0.25203826  0.6325      0.63472222  0.61900669  0.59360556  0.41931832
   0.6975      0.69027778  0.61768535  0.67461039]
 [ 0.32318436  0.74166667  0.77638889  0.64314952  0.74354645  0.48864217
   0.77166667  0.79583333  0.67556609  0.76103369]
 [ 0.74097007  0.83416667  0.84305556  0.86277495  0.83052614  0.47146617
   0.76916667  0.78611111  0.74594077  0.7537371 ]
 [ 0.42779586  0.64666667  0.63888889  0.71900513  0.61982684  0.3467397
   0.6         0.61388889  0.48872389  0.57924881]
 [ 0.07765611  0.56071429  0.65972222  0.32390248  0.54513487  0.34790177
   0.6925      0.69027778  0.71112296  0.67207792]
 [ 0.25569431  0.58452381  0.65        0.54054606  0.57930736  0.22482027
   0.64583333  0.68194444  0.52175994  0.63985348]
 [ 0.09453557  0.655       0.68194444  0.55904996  0.61990093  0.3502997
   0.74666667  0.78194444  0.67192533  0.74880009]
 [ 0.75858063  0.835       0.85277778  0.80614988  0.8339677   0.56321012
   0.72833333  0.75        0.70521435  0.72644605]
 [ 0.21979814  0.65535714  0.85277778  0.39354143  0.60998303  0.52181526
   0.76833333  0.79861111  0.68364859  0.76985542]
 [ 0.54733433  0.70595238  0.76388889  0.74453714  0.66761447  0.49728837
   0.7125      0.72638889  0.67040597  0.70282468]
 [ 0.29374376  0.69166667  0.73611111  0.69397109  0.664503    0.20003069
   0.62666667  0.6625      0.51579909  0.6116589 ]
 [ 0.28742518  0.61666667  0.7625      0.42640958  0.60469905  0.14782357
   0.58583333  0.58888889  0.48470762  0.57655844]
 [ 0.33196905  0.745       0.73888889  0.67210118  0.73241342  0.43172827
   0.7075      0.73888889  0.71958097  0.70549034]
 [ 0.33945378  0.67833333  0.69305556  0.59527059  0.6750272   0.30909598
   0.77142857  0.84305556  0.53784973  0.77023393]
 [ 0.47125527  0.7325      0.72777778  0.66963953  0.72521284  0.51168665
   0.775       0.775       0.63319779  0.76928211]
 [ 0.48782594  0.77166667  0.78194444  0.67086444  0.76924603  0.61823061
   0.8425      0.84166667  0.77920602  0.83926046]
 [ 0.30435766  0.625       0.63055556  0.63036008  0.60670635  0.4358959
   0.69666667  0.70277778  0.7392385   0.69029582]
 [ 0.57771359  0.81785714  0.8375      0.71169655  0.80206294  0.56026182
   0.7675      0.7625      0.85310104  0.75830447]
 [ 0.11638539  0.58833333  0.61388889  0.39564083  0.58009574  0.4851877
   0.77        0.775       0.71686609  0.75486125]
 [ 0.24341159  0.59916667  0.63611111  0.56061801  0.56970862  0.4588292
   0.69166667  0.70416667  0.55149717  0.68612388]
 [ 0.81442107  0.905       0.90694444  0.88958829  0.90122294  0.44036052
   0.77333333  0.79722222  0.6822308   0.75376041]]
RF mean:
[0.43200951 0.72171429 0.75263889 0.65832135 0.70815903 0.42274258
 0.72394841 0.74578704 0.65606849 0.71490073]
---------------------------
---------------------------
SVM performance:
[[0.00000000e+00 5.00000000e-01 5.33333333e-01 0.00000000e+00
  3.47435897e-01 0.00000000e+00 5.00000000e-01 7.72222222e-01
  0.00000000e+00 4.35714286e-01]
 [1.03950104e-01 5.50000000e-01 6.01388889e-01 1.36602540e-01
  4.32853813e-01 1.98120144e-01 5.87500000e-01 6.81944444e-01
  2.93915759e-01 5.25732601e-01]
 [2.73590734e-01 6.25000000e-01 6.83333333e-01 4.39384685e-01
  5.78256743e-01 4.08176497e-01 7.05000000e-01 7.02777778e-01
  6.75919224e-01 6.88863636e-01]
 [1.38200396e-01 5.67500000e-01 5.91666667e-01 2.37792717e-01
  4.63882784e-01 0.00000000e+00 5.00000000e-01 7.50000000e-01
  0.00000000e+00 4.28214286e-01]
 [4.56330043e-01 7.12500000e-01 7.73611111e-01 5.99480048e-01
  6.96516817e-01 5.05569851e-01 7.55000000e-01 7.51388889e-01
  7.22078072e-01 7.36338384e-01]
 [2.51583342e-01 6.22500000e-01 6.26388889e-01 5.07104472e-01
  5.76447719e-01 6.37550255e-01 8.22500000e-01 8.16666667e-01
  8.12968456e-01 8.14740260e-01]
 [0.00000000e+00 5.00000000e-01 6.36111111e-01 0.00000000e+00
  3.88351648e-01 1.61850312e-01 5.77500000e-01 5.91666667e-01
  2.83956231e-01 4.79953380e-01]
 [4.26324111e-01 6.83333333e-01 8.06944444e-01 5.35660780e-01
  6.86080586e-01 2.49207322e-01 6.10833333e-01 6.95833333e-01
  3.99576098e-01 5.70472860e-01]
 [0.00000000e+00 5.00000000e-01 6.83333333e-01 0.00000000e+00
  4.05714286e-01 0.00000000e+00 5.00000000e-01 6.83333333e-01
  0.00000000e+00 4.05714286e-01]
 [0.00000000e+00 5.00000000e-01 5.11111111e-01 0.00000000e+00
  3.37545788e-01 0.00000000e+00 5.00000000e-01 5.56944444e-01
  0.00000000e+00 3.57509158e-01]
 [0.00000000e+00 5.00000000e-01 6.25000000e-01 0.00000000e+00
  3.84065934e-01 0.00000000e+00 5.00000000e-01 6.13888889e-01
  0.00000000e+00 3.79780220e-01]
 [0.00000000e+00 5.00000000e-01 6.13888889e-01 0.00000000e+00
  3.79780220e-01 0.00000000e+00 5.00000000e-01 6.13888889e-01
  0.00000000e+00 3.79780220e-01]
 [0.00000000e+00 5.00000000e-01 5.80555556e-01 0.00000000e+00
  3.66923077e-01 0.00000000e+00 5.00000000e-01 5.69444444e-01
  0.00000000e+00 3.62637363e-01]
 [0.00000000e+00 5.00000000e-01 7.05555556e-01 0.00000000e+00
  4.13214286e-01 1.79422107e-01 5.87500000e-01 5.90277778e-01
  3.26045259e-01 4.92184482e-01]
 [0.00000000e+00 5.00000000e-01 6.94444444e-01 0.00000000e+00
  4.09464286e-01 0.00000000e+00 5.00000000e-01 6.47222222e-01
  0.00000000e+00 3.92637363e-01]
 [0.00000000e+00 5.00000000e-01 6.13888889e-01 0.00000000e+00
  3.79780220e-01 0.00000000e+00 5.00000000e-01 6.58333333e-01
  0.00000000e+00 3.96923077e-01]
 [0.00000000e+00 5.00000000e-01 6.02777778e-01 0.00000000e+00
  3.75494505e-01 0.00000000e+00 5.00000000e-01 6.02777778e-01
  0.00000000e+00 3.75494505e-01]
 [0.00000000e+00 5.00000000e-01 8.86111111e-01 0.00000000e+00
  4.69803922e-01 0.00000000e+00 5.00000000e-01 6.02777778e-01
  0.00000000e+00 3.75494505e-01]
 [0.00000000e+00 5.00000000e-01 7.16666667e-01 0.00000000e+00
  4.16964286e-01 0.00000000e+00 5.00000000e-01 5.56944444e-01
  0.00000000e+00 3.57509158e-01]
 [0.00000000e+00 5.00000000e-01 6.70833333e-01 0.00000000e+00
  4.01318681e-01 0.00000000e+00 5.00000000e-01 6.25000000e-01
  0.00000000e+00 3.84065934e-01]
 [0.00000000e+00 5.00000000e-01 7.72222222e-01 0.00000000e+00
  4.35714286e-01 0.00000000e+00 5.00000000e-01 5.56944444e-01
  0.00000000e+00 3.57509158e-01]
 [5.74324324e-02 5.27500000e-01 5.34722222e-01 1.50000000e-01
  4.01125541e-01 0.00000000e+00 5.00000000e-01 6.36111111e-01
  0.00000000e+00 3.88351648e-01]
 [0.00000000e+00 5.00000000e-01 5.80555556e-01 0.00000000e+00
  3.66923077e-01 0.00000000e+00 5.00000000e-01 7.50000000e-01
  0.00000000e+00 4.28214286e-01]
 [0.00000000e+00 5.00000000e-01 5.22222222e-01 0.00000000e+00
  3.42490842e-01 3.05673487e-01 6.44166667e-01 6.83333333e-01
  4.85299099e-01 6.03351648e-01]
 [0.00000000e+00 5.00000000e-01 5.56944444e-01 0.00000000e+00
  3.57509158e-01 3.06379254e-04 5.00000000e-01 5.11111111e-01
  1.51975387e-01 3.89588745e-01]
 [0.00000000e+00 5.00000000e-01 5.22222222e-01 0.00000000e+00
  3.42490842e-01 3.85838166e-01 6.81666667e-01 7.15277778e-01
  6.03823293e-01 6.63349983e-01]
 [0.00000000e+00 5.00000000e-01 6.94444444e-01 0.00000000e+00
  4.09464286e-01 5.69449209e-01 7.87500000e-01 7.83333333e-01
  7.77791608e-01 7.80295815e-01]
 [0.00000000e+00 5.00000000e-01 6.25000000e-01 0.00000000e+00
  3.84065934e-01 0.00000000e+00 5.00000000e-01 6.02777778e-01
  0.00000000e+00 3.75494505e-01]
 [0.00000000e+00 5.00000000e-01 6.25000000e-01 0.00000000e+00
  3.84065934e-01 0.00000000e+00 5.00000000e-01 5.56944444e-01
  0.00000000e+00 3.57509158e-01]
 [2.56335983e-01 6.16666667e-01 7.05555556e-01 3.67830390e-01
  5.67124542e-01 0.00000000e+00 5.00000000e-01 6.47222222e-01
  0.00000000e+00 3.92637363e-01]]
SVM mean:
[0.06545824 0.53016667 0.64319444 0.09912852 0.430029   0.12003879
 0.55863889 0.65087963 0.18444495 0.46920208]
---------------------------
---------------------------
GBM performance:
[[ 0.62237787  0.7875      0.79583333  0.72055629  0.7677381   0.36434783
   0.65        0.84027778  0.42426407  0.65359432]
 [ 0.47865803  0.73333333  0.75277778  0.69972183  0.72852287  0.31462609
   0.63583333  0.68194444  0.625621    0.61744727]
 [ 0.58074578  0.7675      0.79861111  0.73572538  0.7586963   0.30235411
   0.6525      0.65833333  0.58383121  0.62280664]
 [ 0.55860351  0.7775      0.78472222  0.75267595  0.77018593  0.00347826
   0.50833333  0.73888889  0.07071068  0.45589286]
 [ 0.66181645  0.81666667  0.85277778  0.78293397  0.82115884  0.41931443
   0.715       0.70694444  0.69125786  0.69044012]
 [ 0.47962562  0.74        0.73888889  0.70749279  0.7238456   0.52989893
   0.765       0.75972222  0.73580068  0.75322872]
 [ 0.31414396  0.64833333  0.69305556  0.59472761  0.64266567  0.15275339
   0.565       0.56666667  0.57811287  0.55414141]
 [ 0.93272727  0.96785714  0.97638889  0.96329269  0.96564103  0.5546571
   0.77916667  0.80694444  0.75004596  0.78329976]
 [ 0.14909091  0.56666667  0.70416667  0.30252897  0.53582418  0.21
   0.56666667  0.70555556  0.31845136  0.53569597]
 [ 0.24953934  0.6325      0.6375      0.59692411  0.61753802  0.39478602
   0.6975      0.70555556  0.66466877  0.68510656]
 [ 0.35866445  0.6725      0.72777778  0.61442237  0.67227606  0.53408902
   0.75666667  0.79583333  0.70883871  0.7515257 ]
 [ 0.75334928  0.86666667  0.88888889  0.84996695  0.87230769  0.45894393
   0.72166667  0.7375      0.68659287  0.70671911]
 [ 0.387754    0.7         0.72638889  0.62950197  0.68534632  0.11147164
   0.5725      0.59305556  0.51486829  0.56503802]
 [ 0.04291173  0.52738095  0.68055556  0.24774068  0.50499542  0.4272361
   0.7         0.70138889  0.67759549  0.68354257]
 [ 0.1226087   0.55119048  0.70694444  0.24391576  0.51734432 -0.035338
   0.48666667  0.6         0.11138803  0.41141858]
 [ 0.11251559  0.52333333  0.625       0.21547005  0.44038462  0.40807193
   0.7         0.78472222  0.56529451  0.69014319]
 [ 0.66571255  0.83083333  0.84166667  0.80329818  0.82604562  0.2859474
   0.65583333  0.70138889  0.52759688  0.63969364]
 [ 0.04658385  0.53660714  0.87361111  0.09354143  0.49893557  0.51482171
   0.7475      0.78472222  0.71565758  0.74980714]
 [ 0.21469697  0.63809524  0.75        0.44721189  0.60236846  0.48939538
   0.7425      0.75972222  0.67517912  0.73216284]
 [ 0.19895105  0.59166667  0.68194444  0.3615478   0.55766622  0.20425798
   0.61        0.67222222  0.42860606  0.57077756]
 [ 0.04347826  0.51785714  0.77222222  0.07071068  0.46821429  0.12512404
   0.55        0.57638889  0.48690451  0.53024198]
 [ 0.34551729  0.6925      0.69305556  0.67166847  0.68037879  0.37206294
   0.67583333  0.74861111  0.53955168  0.65620463]
 [ 0.20440973  0.6025      0.63333333  0.52833004  0.58679321  0.33503801
   0.64285714  0.79583333  0.48790768  0.64949093]
 [ 0.22824409  0.6125      0.61666667  0.59198858  0.60160173  0.39192565
   0.69333333  0.70555556  0.66581144  0.68576673]
 [ 0.25703663  0.62416667  0.64722222  0.49763723  0.58960317  0.56820826
   0.7725      0.77361111  0.78653667  0.77001443]
 [ 0.36828808  0.685       0.69305556  0.60084216  0.65524004  0.38329887
   0.68666667  0.70694444  0.64978879  0.67903152]
 [ 0.55965744  0.75        0.84027778  0.7002105   0.76989011  0.6361104
   0.82        0.81666667  0.8024553   0.81069986]
 [ 0.03431046  0.50833333  0.59166667  0.31792644  0.4848668   0.30830522
   0.65333333  0.68611111  0.56342035  0.63175158]
 [ 0.25915895  0.625       0.69444444  0.44271028  0.59086081  0.35878014
   0.67583333  0.69583333  0.61222796  0.6609546 ]
 [ 0.68475041  0.84666667  0.87222222  0.82549869  0.84813437  0.5023119
   0.74166667  0.7875      0.68319082  0.7434965 ]]
GBM mean:
[0.36386428 0.67802183 0.74305556 0.55369066 0.65950234 0.35420929
 0.67134524 0.71981481 0.57773924 0.65567116]
---------------------------
---------------------------
BDDAE performance:
[[-1.01645005e-01  4.48750000e-01  4.50000000e-01  4.30436200e-01
   4.39334078e-01  1.01551823e-02  5.03571429e-01  7.00000000e-01
   2.48553904e-01  4.90404372e-01]
 [ 4.29545902e-01  7.16250000e-01  7.16666667e-01  7.11414434e-01
   7.12571190e-01  3.97230027e-01  6.96103896e-01  7.11111111e-01
   6.84560660e-01  6.94511680e-01]
 [ 8.91798123e-02  5.45000000e-01  5.61111111e-01  4.95959821e-01
   5.28987421e-01  3.11111111e-01  6.55555556e-01  6.55555556e-01
   6.41594144e-01  6.48879680e-01]
 [ 1.94118241e-01  5.97500000e-01  6.05555556e-01  5.55217684e-01
   5.79112638e-01 -3.66148636e-02  4.84697802e-01  6.83333333e-01
   1.26362273e-01  4.41271857e-01]
 [ 2.59709380e-01  6.35714286e-01  6.27777778e-01  6.25786946e-01
   6.20116669e-01  3.66666667e-01  6.83333333e-01  6.83333333e-01
   6.68061309e-01  6.76192865e-01]
 [ 4.66666667e-01  7.33333333e-01  7.33333333e-01  7.03201171e-01
   7.19411899e-01  3.33333333e-02  5.16666667e-01  5.16666667e-01
   4.80231621e-01  4.98600317e-01]
 [ 1.59204310e-01  5.75324675e-01  6.33333333e-01  4.88952227e-01
   5.57326383e-01  3.55555556e-01  6.77777778e-01  6.77777778e-01
   6.59235761e-01  6.69617291e-01]
 [ 5.34229563e-01  7.50000000e-01  8.05555556e-01  7.19529762e-01
   7.60365172e-01 -2.88440714e-04  5.01298701e-01  5.11111111e-01
   4.82601419e-01  4.92220119e-01]
 [ 3.65430133e-01  6.66666667e-01  7.38888889e-01  6.09590866e-01
   6.68766048e-01  2.50052305e-01  6.04166667e-01  7.22222222e-01
   4.51786029e-01  5.91141539e-01]
 [-1.11111111e-02  4.94444444e-01  4.94444444e-01  4.76235531e-01
   4.86141542e-01  3.10020318e-01  6.55000000e-01  6.61111111e-01
   6.39838877e-01  6.49601766e-01]
 [-1.93241850e-02  4.90909091e-01  5.55555556e-01  3.11475027e-01
   4.55535270e-01  1.83934055e-01  5.92857143e-01  6.16666667e-01
   5.61652403e-01  5.83596715e-01]
 [ 1.84757916e-01  5.90259740e-01  6.16666667e-01  5.64355274e-01
   5.84959933e-01  3.82997063e-01  6.91558442e-01  7.05555556e-01
   6.75038245e-01  6.85854377e-01]
 [-3.67038633e-02  4.82500000e-01  4.88888889e-01  4.69983302e-01
   4.78596239e-01  3.24849219e-01  6.62500000e-01  6.66666667e-01
   6.51382088e-01  6.58013974e-01]
 [ 3.48362917e-02  5.26153846e-01  6.44444444e-01  3.23720287e-01
   4.97553445e-01  2.33333333e-01  6.16666667e-01  6.16666667e-01
   6.02386354e-01  6.09894807e-01]
 [ 8.08268253e-02  5.37500000e-01  6.05555556e-01  4.77391611e-01
   5.29594549e-01  3.12344655e-01  6.62500000e-01  6.77777778e-01
   6.53161775e-01  6.51208574e-01]
 [ 1.93994512e-01  5.93506494e-01  6.33333333e-01  5.37066743e-01
   5.81453830e-01  1.07502008e-01  5.45833333e-01  6.27777778e-01
   4.68526965e-01  5.38820209e-01]
 [ 5.43117510e-01  7.78571429e-01  7.83333333e-01  7.53718996e-01
   7.62241607e-01  1.08150335e-01  5.43506494e-01  6.16666667e-01
   3.89372949e-01  5.09208532e-01]
 [ 2.39760176e-01  6.78125000e-01  8.16666667e-01  5.28585965e-01
   6.08673436e-01 -1.82421480e-01  4.09740260e-01  4.50000000e-01
   3.34349466e-01  3.99151110e-01]
 [ 3.39181282e-01  6.76153846e-01  7.27777778e-01  6.55856590e-01
   6.67836571e-01  1.27740043e-01  5.63750000e-01  5.72222222e-01
   5.47659581e-01  5.58460415e-01]
 [ 4.47160231e-02  5.25000000e-01  5.94444444e-01  4.05692845e-01
   5.06245290e-01  9.24615095e-02  5.44805195e-01  5.83333333e-01
   4.77502214e-01  5.35828175e-01]
 [ 1.35891060e-01  5.48214286e-01  7.00000000e-01  4.06439543e-01
   5.62229211e-01  1.56318910e-01  5.77500000e-01  5.83333333e-01
   5.43887931e-01  5.62657160e-01]
 [ 5.55555556e-02  5.27777778e-01  5.27777778e-01  5.15477871e-01
   5.21838799e-01  1.56356482e-01  5.77272727e-01  6.16666667e-01
   5.24229926e-01  5.66937474e-01]
 [ 4.01116181e-02  5.20000000e-01  5.22222222e-01  5.02351665e-01
   5.11691929e-01  3.31064874e-01  6.54890110e-01  8.00000000e-01
   5.22474300e-01  6.52879741e-01]
 [-6.66666667e-02  4.66666667e-01  4.66666667e-01  4.41734429e-01
   4.54834898e-01  8.67923509e-02  5.42500000e-01  5.50000000e-01
   5.24528183e-01  5.35921735e-01]
 [-9.41080377e-03  4.95000000e-01  5.00000000e-01  4.72706756e-01
   4.86672482e-01  1.22222222e-01  5.61111111e-01  5.61111111e-01
   5.50114392e-01  5.55945819e-01]
 [ 1.55555556e-01  5.77777778e-01  5.77777778e-01  5.48801936e-01
   5.63760460e-01  7.53203622e-02  5.38750000e-01  5.50000000e-01
   4.89043881e-01  5.26882922e-01]
 [ 4.73113669e-01  7.37500000e-01  7.77777778e-01  7.05977100e-01
   7.32095409e-01  4.55555556e-01  7.27777778e-01  7.27777778e-01
   7.12328019e-01  7.20766733e-01]
 [ 1.19803101e-01  5.61038961e-01  5.77777778e-01  5.37727836e-01
   5.51737463e-01  3.96021884e-01  6.89610390e-01  7.22222222e-01
   6.66067584e-01  6.92802144e-01]
 [ 7.95920998e-02  5.37662338e-01  5.55555556e-01  5.26148978e-01
   5.35710678e-01  3.15867695e-01  6.57500000e-01  6.66666667e-01
   6.33050066e-01  6.50470779e-01]
 [ 3.63767195e-01  6.81818182e-01  7.00000000e-01  6.63878523e-01
   6.76827017e-01  2.62631797e-02  5.08333333e-01  5.61111111e-01
   4.34375983e-01  4.96212986e-01]]
BDDAE mean:
[0.17792676 0.58983729 0.62462963 0.5388472  0.57807405 0.19366318
 0.59490449 0.63314815 0.53479861 0.58479853]
---------------------------
---------------------------
DUMMY performance:
[[0.         0.5        0.53333333 0.         0.3474359  0.
  0.5        0.77222222 0.         0.43571429]
 [0.         0.5        0.55694444 0.         0.35750916 0.
  0.5        0.61388889 0.         0.37978022]
 [0.         0.5        0.58055556 0.         0.36692308 0.
  0.5        0.51111111 0.         0.33754579]
 [0.         0.5        0.53333333 0.         0.3474359  0.
  0.5        0.75       0.         0.42821429]
 [0.         0.5        0.61388889 0.         0.37978022 0.
  0.5        0.52222222 0.         0.34249084]
 [0.         0.5        0.51111111 0.         0.33754579 0.
  0.5        0.52222222 0.         0.34249084]
 [0.         0.5        0.63611111 0.         0.38835165 0.
  0.5        0.52222222 0.         0.34249084]
 [0.         0.5        0.69444444 0.         0.40946429 0.
  0.5        0.61388889 0.         0.37978022]
 [0.         0.5        0.68333333 0.         0.40571429 0.
  0.5        0.68333333 0.         0.40571429]
 [0.         0.5        0.51111111 0.         0.33754579 0.
  0.5        0.55694444 0.         0.35750916]
 [0.         0.5        0.625      0.         0.38406593 0.
  0.5        0.61388889 0.         0.37978022]
 [0.         0.5        0.61388889 0.         0.37978022 0.
  0.5        0.61388889 0.         0.37978022]
 [0.         0.5        0.58055556 0.         0.36692308 0.
  0.5        0.56944444 0.         0.36263736]
 [0.         0.5        0.70555556 0.         0.41321429 0.
  0.5        0.51111111 0.         0.33754579]
 [0.         0.5        0.69444444 0.         0.40946429 0.
  0.5        0.64722222 0.         0.39263736]
 [0.         0.5        0.61388889 0.         0.37978022 0.
  0.5        0.65833333 0.         0.39692308]
 [0.         0.5        0.60277778 0.         0.37549451 0.
  0.5        0.60277778 0.         0.37549451]
 [0.         0.5        0.88611111 0.         0.46980392 0.
  0.5        0.60277778 0.         0.37549451]
 [0.         0.5        0.71666667 0.         0.41696429 0.
  0.5        0.55694444 0.         0.35750916]
 [0.         0.5        0.67083333 0.         0.40131868 0.
  0.5        0.625      0.         0.38406593]
 [0.         0.5        0.77222222 0.         0.43571429 0.
  0.5        0.55694444 0.         0.35750916]
 [0.         0.5        0.51111111 0.         0.33754579 0.
  0.5        0.63611111 0.         0.38835165]
 [0.         0.5        0.58055556 0.         0.36692308 0.
  0.5        0.75       0.         0.42821429]
 [0.         0.5        0.52222222 0.         0.34249084 0.
  0.5        0.55694444 0.         0.35750916]
 [0.         0.5        0.55694444 0.         0.35750916 0.
  0.5        0.52222222 0.         0.34249084]
 [0.         0.5        0.52222222 0.         0.34249084 0.
  0.5        0.55694444 0.         0.35750916]
 [0.         0.5        0.69444444 0.         0.40946429 0.
  0.5        0.51111111 0.         0.33754579]
 [0.         0.5        0.625      0.         0.38406593 0.
  0.5        0.60277778 0.         0.37549451]
 [0.         0.5        0.625      0.         0.38406593 0.
  0.5        0.55694444 0.         0.35750916]
 [0.         0.5        0.61388889 0.         0.37978022 0.
  0.5        0.64722222 0.         0.39263736]]
DUMMY mean:
[0.         0.5        0.61958333 0.         0.38048553 0.
 0.5        0.59888889 0.         0.37294567]
---------------------------
Current folder: C:\Users\Javier\Dropbox\c_sldl_1_2_19
-------------------------------------
----- RESULTS from .csv files ------
-------------------------------------
---------------------------
ALG Means: 
-rows: alg : KNN = 0; DT = 1; RF = 2; SVM = 3; GBM = 4; BDDAE = 5; DUMMY = 5
columns:
'val_cohen','val_uar', 'val_acc', 'val_gm',  'val_f1',  'aro_cohen','aro_uar', 'aro_acc', 'aro_gm',  'aro_f1'
-------------------------------------------------------------
  v_c   v_u   v_a   v_g   v_f1  a_c   a_u   a_a   a_g   a_f1
[[0.398 0.697 0.74  0.623 0.686 0.41  0.702 0.735 0.642 0.692]
 [0.369 0.686 0.719 0.621 0.675 0.4   0.699 0.714 0.647 0.687]
 [0.432 0.722 0.753 0.658 0.708 0.423 0.724 0.746 0.656 0.715]
 [0.065 0.53  0.643 0.099 0.43  0.12  0.559 0.651 0.184 0.469]
 [0.364 0.678 0.743 0.554 0.66  0.354 0.671 0.72  0.578 0.656]
 [0.178 0.59  0.625 0.539 0.578 0.194 0.595 0.633 0.535 0.585]
 [0.    0.5   0.62  0.    0.38  0.    0.5   0.599 0.    0.373]]
-------------------------------------------------------------
Standard Deviation of each metric:
[[0.227 0.111 0.096 0.18  0.119 0.168 0.084 0.071 0.137 0.088]
 [0.226 0.107 0.094 0.167 0.112 0.151 0.068 0.063 0.106 0.071]
 [0.208 0.095 0.087 0.145 0.102 0.14  0.07  0.062 0.101 0.072]
 [0.129 0.059 0.089 0.186 0.094 0.193 0.096 0.078 0.276 0.136]
 [0.237 0.117 0.092 0.229 0.132 0.164 0.081 0.07  0.171 0.093]
 [0.183 0.092 0.103 0.113 0.093 0.155 0.077 0.077 0.133 0.082]
 [0.    0.    0.085 0.    0.031 0.    0.    0.071 0.    0.027]]
-------------------------------------------------------------
std_dev/mean [percentage]:
[[ 57.  16.  13.  29.  17.  41.  12.  10.  21.  13.]
 [ 61.  16.  13.  27.  17.  38.  10.   9.  16.  10.]
 [ 48.  13.  12.  22.  14.  33.  10.   8.  15.  10.]
 [197.  11.  14. 188.  22. 161.  17.  12. 150.  29.]
 [ 65.  17.  12.  41.  20.  46.  12.  10.  30.  14.]
 [103.  16.  16.  21.  16.  80.  13.  12.  25.  14.]
 [  0.   0.  14.   0.   8.   0.   0.  12.   0.   7.]]
-------------------------------------
Current folder: C:\Users\Javier\Dropbox\c_sldl_1_2_19
-------------------------------------
----- RESULTS ------
-------------------------------------
Window size (sec):  24.992
step (sec):  12.496
overlap:  True
perc. of overlap:  50.0
overlap duration (sec):  12.496
Number of windows / instances:  88
Elapsed time: 1277.2396693785986 minutes
Elapsed time: 21.287327822976643 hours
