2024-03-16 02:36:59.994659: I tensorflow/core/util/port.cc:113] oneDNN custom operations are on. You may see slightly different numerical results due to floating-point round-off errors from different computation orders. To turn them off, set the environment variable `TF_ENABLE_ONEDNN_OPTS=0`.
2024-03-16 02:37:03.644368: I tensorflow/core/util/port.cc:113] oneDNN custom operations are on. You may see slightly different numerical results due to floating-point round-off errors from different computation orders. To turn them off, set the environment variable `TF_ENABLE_ONEDNN_OPTS=0`.
2024-03-16 02:37:12.820239: I tensorflow/core/platform/cpu_feature_guard.cc:210] This TensorFlow binary is optimized to use available CPU instructions in performance-critical operations.
To enable the following instructions: AVX2 FMA, in other operations, rebuild TensorFlow with the appropriate compiler flags.
    
    
-------------------------------
participant:  1
-------------------------------
    
    
participant:  1
corriendo en PC gamer:
Window size (sec):  11.0
step (sec):  5.5
overlap:  True
perc. of overlap:  50.0
overlap duration (sec):  5.5
Nearest multiple of 16 to 11000 is: 11008
Nearest multiple of 16 to 5500 is: 5504
['gsr_chunks', 'ppg_chunks', 'val_chunks', 'aro_chunks', 'time_chunks', 'tag_chunks', 'video']
C:\Users\Javier\Dropbox\c_sldl_1_2_13\functions.py:880: FutureWarning: ChainedAssignmentError: behaviour will change in pandas 3.0!

[1m2/2[0m [32m━━━━━━━━━━━━━━━━━━━━[0m[37m[0m [1m0s[0m 94ms/step
predicted [0.80060095 0.8188506  0.6198037  0.910273   0.25673386 0.7019671
 0.4670216  0.35195452 0.83250993 0.82795584 0.71936214 0.71419305
 0.70095885 0.20368135 0.35245898 0.75785595 0.89860404 0.84181094
 0.7700655  0.48859927 0.92941666 0.21095191 0.80264956 0.6356327
 0.8744668  0.6633123  0.7170283  0.8234393  0.24526027 0.7980322
 0.71760535 0.9268958  0.72652954 0.586375   0.567294   0.8252617
 0.82544816 0.7788028  0.6807841  0.17685325 0.58830553 0.132163
 0.42613128 0.5665499 ]
predicted [1 1 1 1 0 1 0 0 1 1 1 1 1 0 0 1 1 1 1 0 1 0 1 1 1 1 1 1 0 1 1 1 1 1 1 1 1
 1 1 0 1 0 0 1]
expected [ True  True  True  True False False False  True False False False False
 False False  True False False  True  True  True  True  True  True  True
 False  True  True  True False False False  True  True  True  True False
  True  True  True False  True  True  True  True]
accuracy: 0.5909090909090909
confusion matrix: 
[[ 5 12]
 [ 6 21]]
              precision    recall  f1-score   support

       False       0.45      0.29      0.36        17
        True       0.64      0.78      0.70        27

    accuracy                           0.59        44
   macro avg       0.55      0.54      0.53        44
weighted avg       0.57      0.59      0.57        44

macro avg f1-score: 0.5285714285714286
macro avg (UAR): 0.5359477124183006
Sensitivity:  0.29411764705882354
Specificity:  0.7777777777777778
g-mean:  0.47828670265295953
-------- Model Performance ----------: 
accuracy:  [0.77272727 0.63636364 0.65909091 0.65909091 0.59090909 0.59090909
 0.63636364 0.61363636 0.61363636 0.59090909]
gmean:  [0.67317089 0.53626644 0.57923396 0.51130999 0.53829392 0.56011203
 0.53626644 0.48954205 0.33004918 0.4782867 ]
f1_score:  [0.72704715 0.58095238 0.61426067 0.58095238 0.55803571 0.56862745
 0.58095238 0.54584092 0.46837242 0.52857143]
UAR:  [0.7167756  0.583878   0.61328976 0.59150327 0.5577342  0.56862745
 0.583878   0.55446623 0.52178649 0.53594771]
Cohen Kappa score:  [0.47494033 0.17948718 0.23963134 0.20289855 0.11804009 0.1372549
 0.17948718 0.11792453 0.05076142 0.07692308]
arousal and valece = ok
------------- Evaluating model --------------
-------------------------------------
-------------------------------------
participant:  30
-------------------------------------
----- RESULTS ------
-------------------------------------
Window size (sec):  11.008
step (sec):  5.504
overlap:  True
perc. of overlap:  50.0
overlap duration (sec):  5.504
Number of windows / instances:  219
-rows: alg : KNN = 0; DT = 1; RF = 2; SVM = 3; GBM = 4; BDDAE = 5; DUMMY = 5
columns:
'val_cohen','val_uar', 'val_acc', 'val_gm',  'val_f1',  'aro_cohen','aro_uar', 'aro_acc', 'aro_gm',  'aro_f1'
-------------------------------------------------------------
  v_c   v_u   v_a   v_g   v_f1  a_c   a_u   a_a   a_g   a_f1
[[0.784 0.9   0.895 0.894 0.89  0.411 0.71  0.736 0.692 0.703]
 [0.684 0.859 0.863 0.837 0.856 0.525 0.77  0.786 0.768 0.766]
 [0.686 0.879 0.89  0.886 0.882 0.58  0.787 0.809 0.779 0.786]
 [0.768 0.885 0.89  0.882 0.883 0.279 0.628 0.712 0.541 0.62 ]
 [0.677 0.839 0.849 0.831 0.836 0.405 0.69  0.767 0.598 0.69 ]
 [0.178 0.583 0.636 0.523 0.575 0.184 0.58  0.673 0.496 0.576]
 [0.    0.5   0.616 0.    0.381 0.    0.5   0.653 0.    0.395]]
participant performance loaded
    
    
-------------------------------
LAST participant's saved data: 
30
-------------------------------
    
    
---------------------------
KNN performance:
[[0.59362743 0.79810606 0.79848485 0.78701991 0.79254115 0.50205013
  0.74329657 0.82683983 0.70713514 0.74573967]
 [0.41758352 0.71254274 0.70779221 0.7049663  0.70444644 0.59582711
  0.78875153 0.81731602 0.7646503  0.79127928]
 [0.46793886 0.72722222 0.7482684  0.70825953 0.72902697 0.45880409
  0.72871212 0.73051948 0.72144075 0.72665141]
 [0.33843075 0.6680303  0.67532468 0.65611978 0.66546359 0.26179393
  0.62136905 0.72099567 0.56294937 0.62371599]
 [0.49280931 0.7382326  0.77619048 0.69533735 0.734528   0.54946708
  0.77401515 0.77597403 0.76065204 0.76950011]
 [0.56010025 0.78030303 0.78051948 0.77639116 0.77860168 0.63216708
  0.815      0.81774892 0.81039354 0.81475997]
 [0.35056372 0.66684219 0.7034632  0.62601006 0.66268815 0.40727273
  0.70363636 0.70367965 0.69439126 0.69946685]
 [0.86895527 0.92571429 0.94545455 0.92141555 0.9339721  0.66363546
  0.8394765  0.83549784 0.83758512 0.83074564]
 [0.27418623 0.62333333 0.72575758 0.53220872 0.62558252 0.27401795
  0.6241369  0.69891775 0.57927026 0.62888727]
 [0.34899816 0.67386364 0.67532468 0.66081328 0.66847635 0.42698324
  0.71265152 0.71709957 0.70442148 0.71073418]
 [0.21343325 0.60825702 0.63073593 0.57873468 0.59841536 0.43816872
  0.71112637 0.73982684 0.69377305 0.71565018]
 [0.69795465 0.83952991 0.86320346 0.82925156 0.84723634 0.61013155
  0.79493284 0.82207792 0.78109219 0.80213191]
 [0.45614694 0.72412393 0.74004329 0.71251435 0.7256458  0.2399238
  0.61799145 0.63441558 0.59766852 0.61431571]
 [0.2651134  0.62953297 0.67142857 0.59757597 0.62723523 0.42226929
  0.71068182 0.71298701 0.70527672 0.70923025]
 [0.40732398 0.70190476 0.7487013  0.67508526 0.69973835 0.32664016
  0.66660714 0.68961039 0.64485418 0.65772468]
 [0.36358316 0.68057845 0.6978355  0.66587428 0.67824772 0.5047822
  0.74547619 0.79069264 0.70728123 0.74328805]
 [0.52518045 0.75901709 0.77164502 0.75012981 0.76045247 0.45013487
  0.72099359 0.74848485 0.69295001 0.71821823]
 [0.09226689 0.55270468 0.82186147 0.24301837 0.53088018 0.59195308
  0.79326923 0.80367965 0.78787721 0.79483415]
 [0.5386127  0.7647619  0.80887446 0.73595567 0.76410992 0.42768351
  0.71485043 0.71601732 0.70805541 0.71117074]
 [0.37647148 0.68172619 0.73939394 0.64786368 0.68268101 0.31076692
  0.64996947 0.68939394 0.62426378 0.65078642]
 [0.03670734 0.51625    0.7025974  0.29401157 0.50948568 0.08727273
  0.54371212 0.54372294 0.53259399 0.53812387]
 [0.44429114 0.72204545 0.72207792 0.70520904 0.71517087 0.31180906
  0.65309524 0.6982684  0.62446933 0.65083005]
 [0.24377759 0.61931624 0.63484848 0.59621501 0.61437854 0.40057294
  0.68682598 0.78961039 0.63806297 0.69508186]
 [0.23991396 0.6205303  0.62121212 0.60321453 0.61214478 0.51987132
  0.76068376 0.76298701 0.7540329  0.75772604]
 [0.44580745 0.72111111 0.73008658 0.71623898 0.72184756 0.64339778
  0.82181818 0.82164502 0.8187217  0.82080976]
 [0.38513051 0.68984848 0.69805195 0.6713436  0.68580891 0.57548491
  0.78679487 0.79069264 0.7823859  0.78631377]
 [0.49776312 0.743125   0.78982684 0.72563063 0.74581517 0.62398353
  0.81121212 0.81277056 0.80413141 0.81002307]
 [0.14067286 0.56744048 0.61623377 0.53457598 0.56649633 0.41164089
  0.70096154 0.71666667 0.68975711 0.70175214]
 [0.19335924 0.59149878 0.63484848 0.54591482 0.58648551 0.33879293
  0.66694444 0.67597403 0.65402624 0.6650983 ]
 [0.78389658 0.89954212 0.89502165 0.89430824 0.89048873 0.41112495
  0.71017857 0.73571429 0.69182164 0.70345414]]
KNN mean:
[0.40202001 0.69823451 0.73583694 0.65970692 0.69526971 0.4472808
 0.72063904 0.74466089 0.70253283 0.71960146]
---------------------------
---------------------------
DT performance:
[[0.55727653 0.75068182 0.7530303  0.75775288 0.74695622 0.42960011
  0.75556373 0.82705628 0.69593107 0.75822596]
 [0.55511201 0.75613248 0.76277056 0.77673277 0.7547479  0.55889803
  0.78356227 0.79891775 0.7377962  0.77937142]
 [0.48697801 0.74519231 0.74458874 0.74695723 0.73715647 0.42910116
  0.70575758 0.70692641 0.70265214 0.70450025]
 [0.52248174 0.75378788 0.7530303  0.7447675  0.74897513 0.26650256
  0.57095238 0.67099567 0.58218744 0.57044491]
 [0.46126871 0.73653083 0.7495671  0.71532306 0.73135292 0.56993358
  0.78939394 0.78961039 0.80384788 0.78722007]
 [0.36878286 0.67590909 0.67662338 0.71338201 0.67332169 0.6982808
  0.8375     0.83571429 0.82326043 0.83431428]
 [0.4356885  0.7291743  0.73982684 0.72312957 0.72710362 0.39727273
  0.685      0.68506494 0.68083755 0.68099528]
 [0.78737872 0.89880952 0.90887446 0.8999495  0.89598913 0.68745966
  0.81438492 0.83095238 0.82898179 0.81804378]
 [0.44254368 0.73220238 0.77142857 0.72111125 0.72876093 0.29137045
  0.63488095 0.68982684 0.62815271 0.63277234]
 [0.39934613 0.70030303 0.6991342  0.69067609 0.69800523 0.36924845
  0.6880303  0.69393939 0.68699819 0.68365348]
 [0.19199268 0.62087149 0.63030303 0.61407257 0.61053843 0.43876666
  0.71034799 0.72575758 0.7005836  0.70507535]
 [0.60799233 0.8040522  0.81298701 0.7876848  0.79982509 0.45861285
  0.7543956  0.76731602 0.73817502 0.7530888 ]
 [0.34148804 0.69655983 0.70800866 0.68058694 0.69705671 0.14851521
  0.59557692 0.60735931 0.55453512 0.593622  ]
 [0.16740548 0.55508242 0.6030303  0.55273791 0.54748408 0.28468849
  0.67484848 0.67619048 0.64480041 0.66976043]
 [0.2371271  0.60714286 0.66168831 0.56478129 0.60246203 0.27472916
  0.65654762 0.67099567 0.64677687 0.64779867]
 [0.38872302 0.67587759 0.68463203 0.69471762 0.6702576  0.50808364
  0.71821429 0.75281385 0.73791875 0.71326654]
 [0.68663796 0.83121795 0.82705628 0.83059126 0.82430179 0.40056127
  0.66746032 0.68463203 0.69513005 0.66734801]
 [0.36100374 0.68830409 0.82164502 0.63482568 0.68036774 0.45465199
  0.73397436 0.73982684 0.72346975 0.72922238]
 [0.6361519  0.81095238 0.81731602 0.80454963 0.79519297 0.44923798
  0.74021368 0.73917749 0.73718186 0.73615034]
 [0.35728451 0.6764881  0.71233766 0.63301858 0.66763707 0.30887829
  0.64859585 0.66277056 0.63379076 0.64103244]
 [0.16125272 0.60207108 0.7034632  0.53047377 0.59457005 0.13549489
  0.59871212 0.59848485 0.56162883 0.59404041]
 [0.33371401 0.66757576 0.66709957 0.66880507 0.66593584 0.37980595
  0.66809524 0.69480519 0.64361059 0.65975723]
 [0.14505715 0.5599359  0.57077922 0.57021529 0.55814118 0.34026141
  0.65841912 0.73614719 0.63983496 0.64502704]
 [0.3370863  0.67765152 0.67619048 0.66713928 0.67303532 0.45547511
  0.73747863 0.73593074 0.73594348 0.73343723]
 [0.33467416 0.68235043 0.68896104 0.6429621  0.67914228 0.60759651
  0.79863636 0.79891775 0.75055291 0.79700627]
 [0.26758196 0.63340909 0.63441558 0.6285473  0.63196748 0.44635729
  0.73433761 0.73095238 0.72299847 0.72775705]
 [0.44978654 0.74107143 0.78051948 0.71763726 0.73538128 0.58863636
  0.79431818 0.79458874 0.80949083 0.79360573]
 [0.23192346 0.62952381 0.67099567 0.60027257 0.62921919 0.48292692
  0.7143315  0.72575758 0.72638913 0.71273735]
 [0.29606128 0.61439255 0.63484848 0.64656858 0.61255512 0.16180691
  0.60861111 0.61233766 0.57978236 0.60282442]
 [0.68405496 0.8587149  0.86298701 0.83697564 0.85582101 0.52499442
  0.7697619  0.78571429 0.76760342 0.76604008]]
DT mean:
[0.40779521 0.7037323  0.72427128 0.6932315  0.69910872 0.41825829
 0.70826343 0.72564935 0.69736142 0.70460465]
---------------------------
---------------------------
RF performance:
[[0.68492341 0.81651515 0.81774892 0.81074526 0.81479558 0.53414105
  0.7397549  0.82705628 0.71099678 0.74004774]
 [0.59839196 0.78038462 0.78549784 0.80610648 0.77762876 0.65164583
  0.79935897 0.81233766 0.79175046 0.7965509 ]
 [0.48584036 0.76722222 0.78073593 0.69739279 0.76722232 0.46877897
  0.76636364 0.76731602 0.71541282 0.76591274]
 [0.54750668 0.7330303  0.73939394 0.72704457 0.73298346 0.28973494
  0.65627976 0.7530303  0.53466845 0.66765924]
 [0.50422663 0.75796703 0.78138528 0.74197351 0.75405047 0.59635658
  0.83439394 0.83528139 0.80605573 0.83415993]
 [0.36231812 0.78075758 0.78116883 0.78740788 0.77939032 0.64170679
  0.80143939 0.80411255 0.80696132 0.7995419 ]
 [0.41853578 0.71697955 0.74004329 0.71759686 0.71561443 0.34454545
  0.69545455 0.69502165 0.69769123 0.69360954]
 [0.84450001 0.91190476 0.93181818 0.92017934 0.91635149 0.66125649
  0.7720696  0.78528139 0.77040299 0.77144349]
 [0.31251822 0.6683631  0.73095238 0.62002972 0.66724932 0.2655265
  0.63627976 0.7030303  0.61882664 0.62232891]
 [0.507445   0.70787879 0.70800866 0.696425   0.70170994 0.46272811
  0.70219697 0.70800866 0.65433126 0.69824872]
 [0.2184098  0.58860653 0.60757576 0.57149371 0.58225552 0.54539437
  0.75312118 0.77554113 0.7197009  0.75364167]
 [0.68450432 0.83623321 0.85865801 0.78745498 0.84511468 0.56698279
  0.77815934 0.79047619 0.73854187 0.77639637]
 [0.45816074 0.72425214 0.73051948 0.75406943 0.72319333 0.35504487
  0.6816453  0.68463203 0.6247487  0.67651792]
 [0.1706746  0.63846154 0.67640693 0.56854075 0.63810452 0.41274549
  0.68136364 0.68463203 0.69385784 0.67544342]
 [0.32690167 0.68690476 0.73917749 0.63674214 0.68940956 0.41903645
  0.72708333 0.74047619 0.67105478 0.71405384]
 [0.373793   0.66875763 0.69848485 0.64885039 0.66574748 0.55770586
  0.7764881  0.81277056 0.78818268 0.77843458]
 [0.72238289 0.84008547 0.84502165 0.8640773  0.83706268 0.54473432
  0.79629121 0.7991342  0.82383818 0.79192486]
 [0.27448824 0.6494883  0.84437229 0.51020642 0.63153499 0.54239608
  0.73931624 0.7538961  0.74617226 0.73961775]
 [0.53419559 0.80261905 0.83593074 0.78492264 0.80541869 0.59974506
  0.81878205 0.82164502 0.78806623 0.81747028]
 [0.34333382 0.6885119  0.73528139 0.67345111 0.68438348 0.31053038
  0.6455815  0.68982684 0.62180844 0.64363014]
 [0.18991397 0.55520833 0.73506494 0.39956666 0.54494033 0.16959842
  0.58295455 0.58398268 0.59847455 0.57928739]
 [0.46041346 0.70113636 0.70367965 0.69737446 0.69536137 0.43107936
  0.70279762 0.74393939 0.67354898 0.70737692]
 [0.13964174 0.6442094  0.6487013  0.58639674 0.64057988 0.39944152
  0.65802696 0.76255411 0.69980394 0.65768466]
 [0.33533005 0.72371212 0.72532468 0.68061249 0.71865613 0.44446293
  0.75938034 0.75844156 0.73115021 0.75246198]
 [0.42457735 0.71369658 0.72575758 0.7198204  0.71246029 0.67023661
  0.82227273 0.82207792 0.8395338  0.82008108]
 [0.45474665 0.71037879 0.71233766 0.66552407 0.70785504 0.51061469
  0.78087607 0.78571429 0.75132272 0.77862387]
 [0.54555354 0.76318452 0.81277056 0.74695267 0.76784977 0.69902161
  0.82257576 0.82186147 0.80388291 0.81909663]
 [0.25359284 0.61589286 0.67597403 0.6770609  0.61471625 0.54288784
  0.79552808 0.80800866 0.74521097 0.79663313]
 [0.39764556 0.68211233 0.71277056 0.65675173 0.68103692 0.37386955
  0.68694444 0.68982684 0.6718327  0.68021222]
 [0.68558674 0.8790293  0.89004329 0.88554681 0.88175338 0.58000875
  0.78696429 0.80887446 0.77910204 0.78616594]]
RF mean:
[0.44200176 0.72511614 0.7570202  0.70134391 0.72314768 0.48639859
 0.73999147 0.7609596  0.72056441 0.73780859]
---------------------------
---------------------------
SVM performance:
[[ 0.29160515  0.64037879  0.66190476  0.55963479  0.61299665  0.
   0.5         0.75800866  0.          0.43109749]
 [ 0.40135809  0.69681624  0.71277056  0.66973959  0.69184965  0.42992244
   0.70816545  0.74393939  0.6693358   0.70467265]
 [ 0.5340043   0.75286325  0.78961039  0.70008363  0.75004615  0.43022258
   0.71454545  0.71666667  0.70614089  0.71205332]
 [ 0.29401663  0.64212121  0.66212121  0.59457747  0.62983268  0.
   0.5         0.72142857  0.          0.41904931]
 [ 0.51461031  0.7426511   0.78528139  0.70220574  0.74653875  0.53206897
   0.765       0.76688312  0.75337775  0.76181116]
 [ 0.40114278  0.69909091  0.70324675  0.68796974  0.69650766  0.56206182
   0.78151515  0.78138528  0.77587573  0.77867374]
 [ 0.04806911  0.52077991  0.62077922  0.14731309  0.42731835  0.28869779
   0.64454545  0.64415584  0.62975287  0.63744808]
 [ 0.76871818  0.87238095  0.90411255  0.86218342  0.88282289  0.44466592
   0.71621642  0.7482684   0.68806983  0.7164095 ]
 [ 0.          0.5         0.69415584  0.          0.40966098  0.
   0.5         0.68961039  0.          0.40809625]
 [ 0.38918182  0.69575758  0.69415584  0.68814774  0.69130414  0.19679436
   0.59545455  0.61190476  0.54580009  0.57952984]
 [ 0.00659341  0.50267857  0.61645022  0.03535534  0.39172736  0.27956542
   0.62457265  0.6982684   0.50507936  0.60153317]
 [ 0.34793644  0.6598138   0.72619048  0.58279412  0.65234542  0.22050038
   0.59590201  0.68506494  0.43510762  0.56472514]
 [ 0.26058028  0.62446581  0.66255411  0.52988294  0.60464725  0.
   0.5         0.57077922  0.          0.36325439]
 [ 0.          0.5         0.63463203  0.          0.38823529  0.37481362
   0.68818182  0.69004329  0.67589118  0.6827241 ]
 [ 0.          0.5         0.68030303  0.          0.40486486  0.
   0.5         0.64393939  0.          0.39165165]
 [ 0.          0.5         0.5982684   0.          0.37426704  0.13846793
   0.55559524  0.69415584  0.28843682  0.5067777 ]
 [ 0.21670069  0.59873932  0.66212121  0.4116067   0.55265889  0.
   0.5         0.5982684   0.          0.37426704]
 [ 0.          0.5         0.8538961   0.          0.46054409  0.24834895
   0.61367521  0.67142857  0.48877389  0.5883202 ]
 [ 0.          0.5         0.68506494  0.          0.40653153  0.03892857
   0.5175      0.56623377  0.08801153  0.39175579]
 [ 0.          0.5         0.67575758  0.          0.40321321  0.08002116
   0.53323413  0.65281385  0.18939935  0.45478992]
 [ 0.          0.5         0.76709957  0.          0.43406646  0.00909091
   0.50454545  0.51147186  0.10153926  0.36569631]
 [ 0.27544177  0.63856061  0.63571429  0.62062264  0.62827246  0.
   0.5         0.65757576  0.          0.39660661]
 [ 0.          0.5         0.57532468  0.          0.36510313  0.
   0.5         0.73528139  0.          0.42367509]
 [-0.00909091  0.49545455  0.51601732  0.          0.3401348   0.43298673
   0.70980769  0.73051948  0.67298494  0.70405032]
 [ 0.0589984   0.52694444  0.59350649  0.17321448  0.42175138  0.44339778
   0.72181818  0.72164502  0.70025728  0.7127461 ]
 [ 0.06142506  0.52909091  0.56147186  0.19787923  0.41289439  0.37067965
   0.68226496  0.69437229  0.66754746  0.6814901 ]
 [ 0.37028651  0.65949405  0.78073593  0.53494376  0.66043889  0.56723495
   0.7830303   0.78484848  0.77502346  0.78112378]
 [ 0.          0.5         0.64393939  0.          0.39165165  0.29588141
   0.63653846  0.69393939  0.55230584  0.62151749]
 [ 0.          0.5         0.61190476  0.          0.37950514  0.23148543
   0.60944444  0.63939394  0.50179903  0.57127984]
 [ 0.76815052  0.88525641  0.89047619  0.88154118  0.88340026  0.27909034
   0.62815476  0.71212121  0.54063711  0.61976151]]
SVM mean:
[0.19999095 0.59611128 0.68665224 0.31932319 0.53650438 0.2298309
 0.61099026 0.68448052 0.39837157 0.56488625]
---------------------------
---------------------------
GBM performance:
[[ 0.53871606  0.76606061  0.77554113  0.74949453  0.76041539  0.28935449
   0.60539216  0.8034632   0.37705133  0.59787729]
 [ 0.51074619  0.74410256  0.76298701  0.70943806  0.73962002  0.52244076
   0.75204518  0.78961039  0.71752739  0.75577112]
 [ 0.53526354  0.75369658  0.78961039  0.70482555  0.75215398  0.38391656
   0.70348485  0.70800866  0.68091996  0.70104234]
 [ 0.3367509   0.66840909  0.68484848  0.63037631  0.66097328 -0.02535211
   0.490625    0.70779221  0.          0.41435514]
 [ 0.47702992  0.73131105  0.77619048  0.68532583  0.7320485   0.55911679
   0.7694697   0.77186147  0.76767768  0.76584739]
 [ 0.50145571  0.75265152  0.7491342   0.73667012  0.7438108   0.55681767
   0.77643939  0.78138528  0.7544984   0.77031775]
 [ 0.36415121  0.67336691  0.70779221  0.63075071  0.6687503   0.47125307
   0.73590909  0.73549784  0.73249327  0.73423714]
 [ 0.79245373  0.88333333  0.91341991  0.87683656  0.89561215  0.57494835
   0.77470238  0.7991342   0.77014893  0.78022582]
 [ 0.25644736  0.60857143  0.74415584  0.46858672  0.59364176 -0.01015196
   0.49232143  0.65757576  0.11795486  0.43118511]
 [ 0.31010603  0.65954545  0.66212121  0.62109874  0.64403256  0.38781328
   0.69007576  0.7030303   0.66714934  0.68661207]
 [ 0.19401397  0.58717186  0.66731602  0.39454386  0.55374781  0.51217462
   0.74430708  0.78051948  0.72449521  0.74694986]
 [ 0.65281114  0.81504884  0.84480519  0.79325914  0.82212745  0.55468029
   0.7728022   0.79047619  0.76049302  0.77487275]
 [ 0.48290846  0.74279915  0.76666667  0.71358788  0.74234891  0.20881948
   0.59673077  0.63939394  0.50342971  0.57274767]
 [ 0.14950511  0.56517857  0.66688312  0.36817782  0.52535575  0.4074244
   0.69742424  0.70411255  0.6845997   0.69007113]
 [ 0.00246914  0.50095238  0.67121212  0.07559289  0.42551051  0.16000532
   0.56452381  0.66168831  0.44590473  0.53728671]
 [ 0.06398773  0.53418803  0.61645022  0.25772984  0.46686803  0.39787966
   0.67035714  0.76277056  0.5972922   0.6688899 ]
 [ 0.71613395  0.85431624  0.86341991  0.84606346  0.85727193  0.40260698
   0.67880037  0.72597403  0.61719732  0.67207528]
 [ 0.10109336  0.53903509  0.86298701  0.12844571  0.52106292  0.49578265
   0.74700855  0.76298701  0.73393788  0.74996528]
 [ 0.38035816  0.6602381   0.76709957  0.57302791  0.66334982  0.47843602
   0.73544872  0.7487013   0.7049459   0.72921635]
 [ 0.32273273  0.64136905  0.75324675  0.49442907  0.63512265  0.26895681
   0.61949023  0.70324675  0.51159236  0.60490492]
 [-0.00819672  0.49705882  0.76255411  0.          0.43258197  0.18969274
   0.60954545  0.60800866  0.59218821  0.60570315]
 [ 0.32362891  0.68083333  0.68030303  0.67126406  0.67809149  0.43140117
   0.6964881   0.77640693  0.63549579  0.70512618]
 [ 0.23094921  0.60384615  0.64393939  0.53021602  0.58519851  0.16253438
   0.56895833  0.76277056  0.32215636  0.55141519]
 [ 0.32056767  0.65954545  0.66233766  0.64990707  0.65624933  0.5569392
   0.77540598  0.77683983  0.76866649  0.77186492]
 [ 0.32708885  0.65113248  0.68506494  0.58624054  0.63508618  0.59750934
   0.79863636  0.79891775  0.7913001   0.7979907 ]
 [ 0.35677183  0.67530303  0.68441558  0.64574032  0.66628797  0.54033789
   0.76638889  0.77640693  0.75314895  0.76598058]
 [ 0.51494175  0.72119048  0.81753247  0.67748863  0.73369047  0.53475396
   0.77159091  0.77186147  0.76138772  0.76939737]
 [ 0.13441775  0.55535714  0.67121212  0.35867355  0.51660463  0.50347384
   0.73672161  0.77619048  0.70588383  0.74445096]
 [ 0.32545673  0.6476801   0.70822511  0.57879017  0.64283681  0.29584092
   0.64555556  0.65779221  0.62686412  0.63946058]
 [ 0.67691379  0.83927045  0.8487013   0.83087708  0.83615523  0.40529716
   0.6897619   0.76709957  0.59756714  0.68957513]]
GBM mean:
[0.3630558  0.67375211 0.74033911 0.56624861 0.65955357 0.39382346
 0.6892137  0.74031746 0.61413226 0.68084719]
---------------------------
---------------------------
BDDAE performance:
[[-0.08083108  0.46        0.46363636  0.4455059   0.45418159  0.0467681
   0.51818182  0.72727273  0.26640624  0.49290811]
 [ 0.30233418  0.65242105  0.65454545  0.64909975  0.64935438  0.52356263
   0.75392157  0.77954545  0.74320743  0.76003951]
 [ 0.2408763   0.61602564  0.64318182  0.58747873  0.61302918  0.17194759
   0.58561077  0.58863636  0.57026083  0.57947639]
 [ 0.00974293  0.50416667  0.51818182  0.4656204   0.49161138  0.14531686
   0.56458333  0.72272727  0.38174296  0.54931142]
 [ 0.4371242   0.7204793   0.73181818  0.71335659  0.71662234  0.36818182
   0.68409091  0.68409091  0.6816204   0.68302467]
 [ 0.64480567  0.82236025  0.82272727  0.8170841   0.82066374 -0.1042886
   0.44813665  0.44772727  0.43241244  0.4401135 ]
 [ 0.08190968  0.53965142  0.57272727  0.50516574  0.53298819  0.07727273
   0.53863636  0.53863636  0.51500861  0.52723754]
 [ 0.41119469  0.68261905  0.775       0.62753351  0.69645504 -0.09737999
   0.45305011  0.51590909  0.33952959  0.42734515]
 [ 0.41454962  0.67903226  0.79318182  0.60880431  0.69460858  0.49679734
   0.71690476  0.81136364  0.66310775  0.73863821]
 [ 0.04805522  0.52380952  0.52727273  0.51292744  0.52012833  0.25129996
   0.62458333  0.63181818  0.61565158  0.62310103]
 [ 0.17365098  0.58159041  0.62954545  0.53374385  0.57660189  0.28606308
   0.63507625  0.68181818  0.58875871  0.63118871]
 [ 0.20417508  0.59803922  0.63636364  0.56548603  0.59556325  0.3261923
   0.66938998  0.67045455  0.66365843  0.65951654]
 [ 0.17007176  0.58515789  0.59318182  0.57980728  0.58407248  0.28062284
   0.63905263  0.65227273  0.60650662  0.6277078 ]
 [ 0.17171197  0.58035714  0.63636364  0.53165986  0.57729939  0.39659822
   0.69751553  0.7         0.69248664  0.69655549]
 [-0.03581601  0.48428571  0.61363636  0.26232909  0.45351831  0.19811514
   0.59330357  0.65454545  0.53734863  0.59044728]
 [ 0.1871513   0.58974359  0.62727273  0.53362648  0.57746235  0.19755862
   0.58137931  0.70909091  0.38595213  0.54951578]
 [ 0.54321173  0.775       0.77954545  0.76006606  0.76645258  0.1983123
   0.58974359  0.64545455  0.49381878  0.56881848]
 [ 0.3965535   0.68070175  0.87272727  0.61119683  0.69474425  0.00893707
   0.50363248  0.54772727  0.4251985   0.48528392]
 [ 0.13220348  0.56142857  0.64090909  0.51060249  0.56121581  0.33779289
   0.66666667  0.675       0.65465421  0.66509106]
 [ 0.12464795  0.55714286  0.66363636  0.43599006  0.54353987  0.12631344
   0.559375    0.625       0.48450578  0.54704441]
 [ 0.03223272  0.51676471  0.73863636  0.19276397  0.49079764  0.2
   0.6         0.6         0.58670167  0.59355163]
 [ 0.04206185  0.52111801  0.52272727  0.50538432  0.51393896 -0.01783542
   0.49275862  0.61136364  0.28512378  0.45336655]
 [ 0.19596221  0.59663158  0.60909091  0.58034966  0.59265167  0.47374329
   0.7109375   0.81818182  0.66142882  0.72976787]
 [ 0.08931974  0.54461698  0.54772727  0.52787903  0.53819445  0.31210914
   0.65291667  0.66590909  0.63376678  0.65014122]
 [ 0.05906201  0.52947368  0.55        0.49884374  0.52233821 -0.00454545
   0.49772727  0.49772727  0.49399793  0.4959217 ]
 [ 0.34399945  0.66708333  0.68409091  0.63627607  0.66154369  0.29015312
   0.64333333  0.65227273  0.63454318  0.64295133]
 [ 0.30397305  0.64119107  0.72727273  0.59369191  0.64496296  0.57272727
   0.78636364  0.78636364  0.77550367  0.78227336]
 [ 0.00365888  0.50178571  0.57045455  0.42551654  0.49083147  0.35828547
   0.67136752  0.70454545  0.63878274  0.67075751]
 [ 0.05708566  0.52766885  0.57272727  0.47734021  0.52065412  0.47050599
   0.73041667  0.74318182  0.71463535  0.73064038]
 [ 0.17773486  0.58278867  0.63636364  0.52325316  0.57536129  0.1836784
   0.57954023  0.67272727  0.49563369  0.57603031]]
BDDAE mean:
[0.19608045 0.5941045  0.64515152 0.54061277 0.58904625 0.23582687
 0.61293987 0.65871212 0.55539846 0.60559223]
---------------------------
---------------------------
DUMMY performance:
[[0.         0.5        0.53874459 0.         0.35006127 0.
  0.5        0.75800866 0.         0.43109749]
 [0.         0.5        0.56168831 0.         0.35955691 0.
  0.5        0.61190476 0.         0.37950514]
 [0.         0.5        0.57987013 0.         0.36695187 0.
  0.5        0.51601732 0.         0.34025735]
 [0.         0.5        0.54329004 0.         0.35202206 0.
  0.5        0.72142857 0.         0.41904931]
 [0.         0.5        0.60735931 0.         0.3777591  0.
  0.5        0.50692641 0.         0.33633578]
 [0.         0.5        0.51601732 0.         0.34025735 0.
  0.5        0.52965368 0.         0.34613971]
 [0.         0.5        0.60735931 0.         0.3777591  0.
  0.5        0.49761905 0.         0.33225806]
 [0.         0.5        0.68030303 0.         0.40486486 0.
  0.5        0.60735931 0.         0.3777591 ]
 [0.         0.5        0.69415584 0.         0.40966098 0.
  0.5        0.68961039 0.         0.40809625]
 [0.         0.5        0.51147186 0.         0.33829657 0.
  0.5        0.54329004 0.         0.35202206]
 [0.         0.5        0.61645022 0.         0.38125117 0.
  0.5        0.60281385 0.         0.37601307]
 [0.         0.5        0.62099567 0.         0.3829972  0.
  0.5        0.62099567 0.         0.3829972 ]
 [0.         0.5        0.57532468 0.         0.36510313 0.
  0.5        0.57077922 0.         0.36325439]
 [0.         0.5        0.63463203 0.         0.38823529 0.
  0.5        0.52510823 0.         0.34417892]
 [0.         0.5        0.68030303 0.         0.40486486 0.
  0.5        0.64393939 0.         0.39165165]
 [0.         0.5        0.5982684  0.         0.37426704 0.
  0.5        0.66212121 0.         0.39825826]
 [0.         0.5        0.58441558 0.         0.36880061 0.
  0.5        0.5982684  0.         0.37426704]
 [0.         0.5        0.8538961  0.         0.46054409 0.
  0.5        0.58896104 0.         0.37064935]
 [0.         0.5        0.68506494 0.         0.40653153 0.
  0.5        0.5525974  0.         0.35585943]
 [0.         0.5        0.67575758 0.         0.40321321 0.
  0.5        0.63008658 0.         0.38648926]
 [0.         0.5        0.76709957 0.         0.43406646 0.
  0.5        0.50692641 0.         0.33633578]
 [0.         0.5        0.51147186 0.         0.33829657 0.
  0.5        0.65757576 0.         0.39660661]
 [0.         0.5        0.57532468 0.         0.36510313 0.
  0.5        0.73528139 0.         0.42367509]
 [0.         0.5        0.52056277 0.         0.34221814 0.
  0.5        0.5525974  0.         0.35585943]
 [0.         0.5        0.57077922 0.         0.36325439 0.
  0.5        0.49761905 0.         0.33225806]
 [0.         0.5        0.53419913 0.         0.34810049 0.
  0.5        0.5525974  0.         0.35585943]
 [0.         0.5        0.69415584 0.         0.40966098 0.
  0.5        0.50692641 0.         0.33633578]
 [0.         0.5        0.64393939 0.         0.39165165 0.
  0.5        0.5982684  0.         0.37426704]
 [0.         0.5        0.61190476 0.         0.37950514 0.
  0.5        0.54805195 0.         0.3540107 ]
 [0.         0.5        0.61645022 0.         0.38125117 0.
  0.5        0.6530303  0.         0.39495495]]
DUMMY mean:
[0.         0.5        0.61370851 0.         0.37887021 0.
 0.5        0.59287879 0.         0.37087672]
---------------------------
Current folder: C:\Users\Javier\Dropbox\c_sldl_1_2_13
-------------------------------------
----- RESULTS from .csv files ------
-------------------------------------
---------------------------
ALG Means: 
-rows: alg : KNN = 0; DT = 1; RF = 2; SVM = 3; GBM = 4; BDDAE = 5; DUMMY = 5
columns:
'val_cohen','val_uar', 'val_acc', 'val_gm',  'val_f1',  'aro_cohen','aro_uar', 'aro_acc', 'aro_gm',  'aro_f1'
-------------------------------------------------------------
  v_c   v_u   v_a   v_g   v_f1  a_c   a_u   a_a   a_g   a_f1
[[0.402 0.698 0.736 0.66  0.695 0.447 0.721 0.745 0.703 0.72 ]
 [0.408 0.704 0.724 0.693 0.699 0.418 0.708 0.726 0.697 0.705]
 [0.442 0.725 0.757 0.701 0.723 0.486 0.74  0.761 0.721 0.738]
 [0.2   0.596 0.687 0.319 0.537 0.23  0.611 0.684 0.398 0.565]
 [0.363 0.674 0.74  0.566 0.66  0.394 0.689 0.74  0.614 0.681]
 [0.196 0.594 0.645 0.541 0.589 0.236 0.613 0.659 0.555 0.606]
 [0.    0.5   0.614 0.    0.379 0.    0.5   0.593 0.    0.371]]
-------------------------------------------------------------
Standard Deviation of each metric:
[[0.187 0.093 0.079 0.14  0.096 0.137 0.07  0.065 0.078 0.07 ]
 [0.165 0.083 0.078 0.088 0.083 0.142 0.068 0.064 0.073 0.07 ]
 [0.172 0.082 0.072 0.109 0.085 0.131 0.064 0.058 0.073 0.065]
 [0.233 0.114 0.092 0.319 0.16  0.193 0.096 0.065 0.297 0.139]
 [0.203 0.101 0.075 0.221 0.119 0.168 0.085 0.052 0.19  0.1  ]
 [0.174 0.085 0.097 0.122 0.09  0.179 0.087 0.088 0.133 0.096]
 [0.    0.    0.077 0.    0.029 0.    0.    0.072 0.    0.028]]
-------------------------------------------------------------
std_dev/mean [percentage]:
[[ 47.  13.  11.  21.  14.  31.  10.   9.  11.  10.]
 [ 40.  12.  11.  13.  12.  34.  10.   9.  10.  10.]
 [ 39.  11.  10.  16.  12.  27.   9.   8.  10.   9.]
 [117.  19.  13. 100.  30.  84.  16.   9.  75.  25.]
 [ 56.  15.  10.  39.  18.  43.  12.   7.  31.  15.]
 [ 89.  14.  15.  23.  15.  76.  14.  13.  24.  16.]
 [  0.   0.  13.   0.   8.   0.   0.  12.   0.   8.]]
-------------------------------------
Current folder: C:\Users\Javier\Dropbox\c_sldl_1_2_13
-------------------------------------
----- RESULTS ------
-------------------------------------
Window size (sec):  11.008
step (sec):  5.504
overlap:  True
perc. of overlap:  50.0
overlap duration (sec):  5.504
Number of windows / instances:  219
Elapsed time: 818.6207887411117 minutes
Elapsed time: 13.643679812351863 hours
