2024-05-02 11:36:51.480961: I tensorflow/core/util/port.cc:113] oneDNN custom operations are on. You may see slightly different numerical results due to floating-point round-off errors from different computation orders. To turn them off, set the environment variable `TF_ENABLE_ONEDNN_OPTS=0`.
2024-05-02 11:36:55.180051: I tensorflow/core/util/port.cc:113] oneDNN custom operations are on. You may see slightly different numerical results due to floating-point round-off errors from different computation orders. To turn them off, set the environment variable `TF_ENABLE_ONEDNN_OPTS=0`.
2024-05-02 11:37:04.419225: I tensorflow/core/platform/cpu_feature_guard.cc:210] This TensorFlow binary is optimized to use available CPU instructions in performance-critical operations.
To enable the following instructions: AVX2 FMA, in other operations, rebuild TensorFlow with the appropriate compiler flags.
    
    
-------------------------------
participant:  1
-------------------------------
    
    
participant:  1
corriendo en PC gamer:
Window size (sec):  9.0
step (sec):  4.5
overlap:  True
perc. of overlap:  50.0
overlap duration (sec):  4.5
Nearest multiple of 16 to 9000 is: 8992
Nearest multiple of 16 to 4500 is: 4496
['gsr_chunks', 'ppg_chunks', 'val_chunks', 'aro_chunks', 'time_chunks', 'tag_chunks', 'video']
C:\Users\Javier\Dropbox\c_sldl_1_2_28\functions.py:880: FutureWarning: ChainedAssignmentError: behaviour will change in pandas 3.0!
You are setting values through chained assignment. Currently this works in certain cases, but when using Copy-on-Write (which will become the default behaviour in pandas 3.0) this will never work to update the original DataFrame or Series, because the intermediate object on which we are setting values will behave as a copy.

predicted [0.8908074  0.04738123 0.7165129  0.5541633  0.9525509  0.8374431
 0.4599425  0.7799351  0.10126335 0.881298   0.02937722 0.07269562
 0.64335954 0.929723   0.68732786 0.92743266 0.6353085  0.7484931
 0.7228644  0.78357506 0.65289986 0.07647182 0.8754426  0.05816197
 0.9802726  0.5873198  0.7396759  0.8412553  0.7267077  0.72037387
 0.7502671  0.76420647 0.636626   0.8737774  0.76481277 0.58608913
 0.7803047  0.8128823  0.4120559  0.02204312 0.5672833  0.6234661
 0.7679089  0.78372705 0.6877202  0.903709   0.74879986 0.5819964
 0.89050967 0.903691   0.9465132  0.72283936 0.76565033 0.91292757]
predicted [1 0 1 1 1 1 0 1 0 1 0 0 1 1 1 1 1 1 1 1 1 0 1 0 1 1 1 1 1 1 1 1 1 1 1 1 1
 1 0 0 1 1 1 1 1 1 1 1 1 1 1 1 1 1]
expected [ True False  True  True  True  True  True  True False False False False
  True  True False  True  True  True  True False  True False  True False
  True  True  True False False  True  True False False  True  True  True
  True  True False False  True  True  True False False  True  True False
  True  True  True  True False False]
accuracy: 0.7592592592592593
confusion matrix: 
[[ 8 12]
 [ 1 33]]
              precision    recall  f1-score   support

       False       0.89      0.40      0.55        20
        True       0.73      0.97      0.84        34

    accuracy                           0.76        54
   macro avg       0.81      0.69      0.69        54
weighted avg       0.79      0.76      0.73        54

macro avg f1-score: 0.693583587952859
macro avg (UAR): 0.6852941176470588
Sensitivity:  0.4
Specificity:  0.9705882352941176
g-mean:  0.6230853024407228
-------- Model Performance ----------: 
accuracy:  [0.74074074 0.62962963 0.66666667 0.74074074 0.59259259 0.64814815
 0.72222222 0.66666667 0.66666667 0.75925926]
gmean:  [0.74261066 0.49705012 0.63593377 0.68492164 0.50729966 0.60633906
 0.65304716 0.51449576 0.51449576 0.6230853 ]
f1_score:  [0.73153409 0.55592105 0.64264706 0.70833333 0.54166667 0.6187291
 0.68297456 0.58461538 0.58461538 0.69358359]
UAR:  [0.74264706 0.56176471 0.64264706 0.70147059 0.54264706 0.61764706
 0.67647059 0.59117647 0.59117647 0.68529412]
Cohen Kappa score:  [0.46610169 0.13461538 0.28529412 0.4202454  0.08895706 0.23774146
 0.37209302 0.20327869 0.20327869 0.41791045]
arousal and valece = ok
------------- Evaluating model --------------
-------------------------------------
-------------------------------------
participant:  30
-------------------------------------
----- RESULTS ------
-------------------------------------
Window size (sec):  8.992
step (sec):  4.496
overlap:  True
perc. of overlap:  50.0
overlap duration (sec):  4.496
Number of windows / instances:  270
-rows: alg : KNN = 0; DT = 1; RF = 2; SVM = 3; GBM = 4; BDDAE = 5; DUMMY = 5
columns:
'val_cohen','val_uar', 'val_acc', 'val_gm',  'val_f1',  'aro_cohen','aro_uar', 'aro_acc', 'aro_gm',  'aro_f1'
-------------------------------------------------------------
  v_c   v_u   v_a   v_g   v_f1  a_c   a_u   a_a   a_g   a_f1
[[0.784 0.899 0.896 0.898 0.892 0.416 0.713 0.741 0.688 0.704]
 [0.652 0.821 0.833 0.818 0.822 0.465 0.726 0.756 0.714 0.723]
 [0.772 0.842 0.856 0.876 0.844 0.565 0.82  0.852 0.781 0.828]
 [0.769 0.884 0.893 0.879 0.884 0.364 0.67  0.737 0.622 0.673]
 [0.632 0.81  0.83  0.803 0.815 0.325 0.646 0.733 0.561 0.642]
 [0.283 0.635 0.683 0.598 0.634 0.101 0.543 0.648 0.4   0.517]
 [0.    0.5   0.622 0.    0.384 0.    0.5   0.652 0.    0.395]]
participant performance loaded
    
    
-------------------------------
LAST participant's saved data: 
30
-------------------------------
    
    
---------------------------
KNN performance:
[[0.55430758 0.77548535 0.78148148 0.77032319 0.77582705 0.4459207
  0.71142857 0.81481481 0.66566847 0.71964597]
 [0.47295501 0.73706044 0.73703704 0.72944529 0.73306597 0.54940355
  0.7676738  0.79259259 0.75581416 0.77249016]
 [0.42680598 0.70929924 0.72592593 0.69160881 0.70865073 0.43824307
  0.71974359 0.71851852 0.71233402 0.71566161]
 [0.3757841  0.68601648 0.69259259 0.67118445 0.68287453 0.34597056
  0.66700188 0.75185185 0.62465153 0.6696039 ]
 [0.56620245 0.77550468 0.8037037  0.74394134 0.77316028 0.48135306
  0.74038462 0.74074074 0.73385845 0.73813494]
 [0.51647506 0.75769231 0.75925926 0.75323925 0.75667618 0.66368423
  0.8309707  0.83333333 0.82557418 0.83039833]
 [0.33869674 0.66483623 0.69259259 0.63978136 0.6631431  0.39552395
  0.69697802 0.7        0.67691863 0.68936209]
 [0.90780355 0.9502924  0.96296296 0.94634395 0.95346075 0.67202345
  0.84352607 0.84074074 0.83892148 0.83433915]
 [0.36993243 0.67108918 0.76296296 0.59172579 0.6767611  0.32773283
  0.65720029 0.73333333 0.6109264  0.65825179]
 [0.33684538 0.66806777 0.67037037 0.66044109 0.66549579 0.40472461
  0.7028022  0.7037037  0.69859133 0.70073638]
 [0.18180112 0.5895889  0.61851852 0.56447241 0.58763241 0.30787619
  0.64895833 0.67407407 0.62799837 0.64934366]
 [0.64580022 0.81432487 0.83703704 0.80749049 0.82206918 0.61010354
  0.79706217 0.82222222 0.78170417 0.80146273]
 [0.50512407 0.75092803 0.75925926 0.74071424 0.74921226 0.30064726
  0.64672348 0.66296296 0.62612043 0.64434954]
 [0.2054626  0.59751634 0.65555556 0.55870038 0.59643482 0.43732054
  0.71612637 0.72222222 0.70642988 0.71548725]
 [0.33240146 0.65420322 0.72222222 0.62319165 0.66328407 0.32276081
  0.65457516 0.6962963  0.63004617 0.65607087]
 [0.38415247 0.68521056 0.71481481 0.66445861 0.68782173 0.42136443
  0.7048366  0.75555556 0.67622127 0.70674077]
 [0.63111481 0.81623106 0.81851852 0.81429927 0.81464433 0.42116952
  0.70369318 0.72962963 0.68635376 0.70710444]
 [0.28059184 0.62391304 0.85185185 0.43519864 0.6345538  0.49883437
  0.74445521 0.76296296 0.73647518 0.74796136]
 [0.5029085  0.74440789 0.7962963  0.71714144 0.74609777 0.47207744
  0.735      0.74074074 0.72898336 0.73425725]
 [0.35257905 0.67251462 0.72592593 0.64232715 0.67213493 0.31703573
  0.655      0.69259259 0.62835113 0.65370405]
 [0.08876305 0.53964286 0.71481481 0.37506711 0.53475138 0.17602919
  0.58791209 0.58888889 0.5817852  0.58541083]
 [0.46758274 0.73434066 0.73333333 0.73000707 0.7317418  0.36443979
  0.67862745 0.72592593 0.64771596 0.67718234]
 [0.25045251 0.62410985 0.63333333 0.61366913 0.62132955 0.30264541
  0.63285714 0.77037037 0.55166019 0.64053711]
 [0.22722361 0.61337912 0.61481481 0.60716995 0.61082728 0.51502877
  0.75528409 0.76296296 0.74813946 0.75549394]
 [0.47198011 0.73410985 0.74444444 0.7240343  0.73325567 0.69576688
  0.84807692 0.84814815 0.8452018  0.84693032]
 [0.48753827 0.74164835 0.74814815 0.73215492 0.74069817 0.55075941
  0.77666667 0.77777778 0.76725995 0.77161278]
 [0.46179487 0.72024854 0.78148148 0.69632643 0.72914481 0.58414474
  0.79175824 0.79259259 0.78574486 0.78997572]
 [0.25516262 0.6274183  0.64814815 0.61987475 0.62576849 0.50709974
  0.7467012  0.76666667 0.73549335 0.75085118]
 [0.23034384 0.61197527 0.64814815 0.58833063 0.61159119 0.37145555
  0.68409341 0.69259259 0.66558834 0.67903283]
 [0.78395855 0.89929144 0.8962963  0.89786588 0.89159506 0.41557006
  0.71271242 0.74074074 0.68831699 0.70420786]]
KNN mean:
[0.42041815 0.70634489 0.7417284  0.67835097 0.70645681 0.44389031
 0.71862766 0.74518519 0.69962828 0.71821137]
---------------------------
---------------------------
DT performance:
[[0.5219195  0.76330586 0.76296296 0.72544075 0.75875574 0.41295051
  0.69892857 0.78148148 0.6801532  0.69800071]
 [0.52832342 0.78384615 0.78518519 0.76670306 0.78272327 0.59417459
  0.79963235 0.81111111 0.81914623 0.79861988]
 [0.52754328 0.76598485 0.77407407 0.77274227 0.76533771 0.4449794
  0.69764652 0.6962963  0.69897217 0.69355987]
 [0.43756563 0.72479853 0.72222222 0.72918411 0.71912781 0.41343079
  0.68197368 0.71851852 0.64705348 0.67060539]
 [0.46448015 0.74599933 0.76296296 0.74995532 0.74625304 0.48155477
  0.73653846 0.73703704 0.74480027 0.73385534]
 [0.41580523 0.72225275 0.72222222 0.71942674 0.72081368 0.62892325
  0.78863553 0.78888889 0.82311652 0.78614581]
 [0.30384102 0.63465241 0.64814815 0.63183967 0.63337976 0.3098319
  0.67032967 0.67037037 0.65291558 0.66767677]
 [0.84662496 0.91849415 0.92222222 0.91476618 0.91255586 0.67126767
  0.8280615  0.84074074 0.85244071 0.82721595]
 [0.3904515  0.7372807  0.77037037 0.70755692 0.72831179 0.37807323
  0.69473684 0.73703704 0.67036359 0.69275481]
 [0.36256766 0.68952381 0.68888889 0.68598349 0.68529766 0.45391617
  0.69898352 0.7        0.69411852 0.69390453]
 [0.08085011 0.53855615 0.55925926 0.54071065 0.53249121 0.48003219
  0.73609848 0.74814815 0.72829534 0.73640111]
 [0.59838843 0.79028075 0.8037037  0.76949648 0.78811022 0.45050257
  0.71483957 0.72962963 0.71541838 0.71389574]
 [0.43980231 0.70583333 0.71111111 0.68272303 0.70309586 0.27805794
  0.64897727 0.64814815 0.63281878 0.64422974]
 [0.11634021 0.56186275 0.6037037  0.55297905 0.55916211 0.39956896
  0.69314103 0.69259259 0.68883582 0.69041851]
 [0.26479528 0.64440789 0.7        0.63831771 0.6463004  0.41689475
  0.69003268 0.71111111 0.69530342 0.68538797]
 [0.39718931 0.74722594 0.75925926 0.69199225 0.74731056 0.59803222
  0.7996732  0.82592593 0.76578055 0.80204148]
 [0.63860101 0.83251894 0.83703704 0.81745763 0.83158152 0.54342563
  0.77784091 0.78888889 0.78737656 0.77625454]
 [0.39364704 0.67119565 0.84444444 0.63436485 0.6689822  0.44655644
  0.73134358 0.74444444 0.73341653 0.73283627]
 [0.46699321 0.71944444 0.76666667 0.7355969  0.70938551 0.54228787
  0.75916667 0.75925926 0.75309266 0.75630592]
 [0.34370639 0.68059211 0.7        0.6567178  0.66885544 0.29381044
  0.62205882 0.64074074 0.64317581 0.61541428]
 [0.11451558 0.54821429 0.68888889 0.42402132 0.54693111 0.12434232
  0.55521978 0.55555556 0.54642866 0.55287475]
 [0.38422796 0.69615385 0.6962963  0.69575002 0.69409552 0.32469482
  0.67839869 0.71481481 0.6236014  0.67628618]
 [0.2764446  0.62867424 0.63333333 0.61902666 0.62308006 0.27810625
  0.64309524 0.71481481 0.59278132 0.63437019]
 [0.34073484 0.68434066 0.68518519 0.65722659 0.68293223 0.45650787
  0.72316288 0.72592593 0.70750854 0.72103127]
 [0.55789036 0.76304924 0.76296296 0.77652569 0.7589658  0.59915944
  0.81016484 0.81111111 0.80137238 0.80969165]
 [0.40618686 0.69326007 0.69259259 0.69949035 0.68762702 0.35733197
  0.7175     0.71851852 0.66439788 0.71522493]
 [0.46134095 0.75321637 0.77777778 0.73993334 0.74294084 0.44471197
  0.75631868 0.75555556 0.73032786 0.7508169 ]
 [0.17075648 0.57496732 0.61481481 0.55616058 0.56736856 0.43922039
  0.72605949 0.73703704 0.70849769 0.72457489]
 [0.29669187 0.61155749 0.64444444 0.5890205  0.61258873 0.30003052
  0.65119963 0.65185185 0.64072549 0.64702329]
 [0.65230781 0.82050802 0.83333333 0.81823589 0.82191072 0.46478019
  0.72558824 0.75555556 0.71353085 0.72330113]]
DT mean:
[0.40668443 0.7050666  0.7291358  0.68997819 0.7015424  0.43423857
 0.71517821 0.73037037 0.70519221 0.71235733]
---------------------------
---------------------------
RF performance:
[[0.6902247  0.80711538 0.81481481 0.819436   0.80576148 0.5253805
  0.7872619  0.85555556 0.75734088 0.79482037]
 [0.57893521 0.79380952 0.7962963  0.78263889 0.79212114 0.53535822
  0.77163102 0.78518519 0.77739094 0.77134504]
 [0.57360663 0.75742424 0.77407407 0.67121866 0.75943359 0.39127844
  0.72157509 0.72222222 0.69551543 0.7205978 ]
 [0.43468437 0.69251832 0.69259259 0.71442794 0.68890261 0.44797739
  0.66339286 0.73333333 0.57277034 0.65842747]
 [0.57396157 0.73970588 0.75925926 0.7274501  0.73860234 0.50219601
  0.75274725 0.75185185 0.74731817 0.75001372]
 [0.52518447 0.74505495 0.74444444 0.72935219 0.74382175 0.62760575
  0.84199634 0.84444444 0.82491064 0.84213082]
 [0.38183519 0.70522059 0.72222222 0.6958923  0.70416421 0.34699192
  0.68049451 0.68148148 0.71167769 0.6781196 ]
 [0.87391204 0.9251462  0.94074074 0.92484099 0.92835731 0.69037876
  0.82009024 0.82962963 0.84151055 0.81820794]
 [0.4567332  0.73501462 0.78518519 0.74097221 0.73617419 0.32257797
  0.68260234 0.73333333 0.64916058 0.68503797]
 [0.44425805 0.70325092 0.7037037  0.73442968 0.70212927 0.46820132
  0.70039377 0.7037037  0.75454201 0.6984005 ]
 [0.37468248 0.60846591 0.64074074 0.63871526 0.60489208 0.53767205
  0.72003788 0.73703704 0.69477791 0.71922757]
 [0.6357985  0.81277406 0.82962963 0.80625016 0.81516014 0.5824091
  0.75806818 0.78148148 0.77634591 0.75994737]
 [0.42805987 0.72200758 0.72962963 0.69954092 0.71469995 0.37453409
  0.63710227 0.64074074 0.65836502 0.63294471]
 [0.19579024 0.57369281 0.62592593 0.53085104 0.56531494 0.47162465
  0.70738095 0.71111111 0.71092609 0.70485249]
 [0.27565625 0.67858187 0.73333333 0.6790742  0.67785026 0.38801884
  0.72751634 0.75555556 0.71163574 0.72675323]
 [0.40930784 0.65161765 0.67407407 0.70475141 0.65090451 0.52302146
  0.7948366  0.82222222 0.77197578 0.79405182]
 [0.62824384 0.85147727 0.85925926 0.83213227 0.8538279  0.61793485
  0.81136364 0.81851852 0.79919984 0.80849208]
 [0.33609759 0.67771739 0.85555556 0.54937766 0.68932793 0.52033802
  0.75560495 0.77037037 0.77040726 0.75762379]
 [0.60562189 0.80146199 0.84074074 0.79419147 0.80024656 0.63603836
  0.8175     0.82592593 0.79636884 0.81909297]
 [0.34022979 0.68903509 0.73333333 0.63614553 0.69253659 0.33726737
  0.67323529 0.7        0.71302618 0.67042887]
 [0.07012249 0.52952381 0.69259259 0.28535526 0.5206586  0.08175868
  0.56675824 0.56666667 0.52634879 0.56006332]
 [0.37762694 0.73021978 0.72962963 0.73462465 0.72881098 0.44452993
  0.70156863 0.74444444 0.66190532 0.70537399]
 [0.27169487 0.62666667 0.63333333 0.61634646 0.62296688 0.3024285
  0.6427381  0.75555556 0.61302812 0.64818141]
 [0.38360125 0.66144689 0.66296296 0.68772658 0.65889493 0.50383284
  0.79111742 0.79259259 0.74156912 0.78891132]
 [0.59985776 0.7724053  0.78148148 0.75176172 0.7722889  0.70304343
  0.85082418 0.85185185 0.82946808 0.85064595]
 [0.34611628 0.65953297 0.66296296 0.66746449 0.65378841 0.54477809
  0.75083333 0.75925926 0.80605024 0.75065137]
 [0.45590944 0.75347222 0.78888889 0.7668877  0.75097621 0.59934045
  0.81510989 0.81481481 0.74544102 0.81240255]
 [0.22106544 0.61169935 0.66296296 0.58701725 0.60832474 0.52077497
  0.77289439 0.78148148 0.77373793 0.77096313]
 [0.31160257 0.69073195 0.72592593 0.66623909 0.69487712 0.36149359
  0.68108974 0.68888889 0.69209686 0.67849623]
 [0.77238747 0.84163436 0.85555556 0.87638287 0.84376447 0.56466132
  0.82006536 0.85185185 0.78132371 0.82766428]]
RF mean:
[0.45242694 0.71828085 0.74839506 0.7017165  0.71731933 0.48244823
 0.74059436 0.76037037 0.7302045  0.74012899]
---------------------------
---------------------------
SVM performance:
[[ 0.33613055  0.66205128  0.68518519  0.61244979  0.65072227  0.
   0.5         0.75555556  0.          0.43031915]
 [ 0.36458887  0.67951465  0.68888889  0.66613038  0.67815907  0.33248742
   0.65703209  0.7037037   0.61657861  0.65723641]
 [ 0.49085341  0.73215909  0.76666667  0.68424714  0.73078456  0.45111165
   0.72578755  0.72592593  0.71507658  0.72103672]
 [ 0.33121167  0.66282967  0.67407407  0.62824803  0.65215543  0.
   0.5         0.71851852  0.          0.41803885]
 [ 0.51094063  0.73952874  0.78888889  0.68197134  0.7384672   0.48647018
   0.74230769  0.74444444  0.73566538  0.74089179]
 [ 0.34400932  0.6706044   0.67407407  0.64715774  0.66191066  0.54614286
   0.77279304  0.77407407  0.76710353  0.77102345]
 [ 0.11621458  0.54965909  0.63703704  0.31046525  0.47963702  0.34340745
   0.67087912  0.67407407  0.65761234  0.66642498]
 [ 0.75681677  0.87167398  0.8962963   0.86206807  0.87667003  0.44114997
   0.70905749  0.74814815  0.68016143  0.71377232]
 [ 0.          0.5         0.6962963   0.          0.41043478  0.
   0.5         0.68888889  0.          0.40782609]
 [ 0.36021002  0.67989011  0.68148148  0.6711193   0.67661979  0.28401057
   0.63912088  0.65185185  0.60909179  0.63093535]
 [ 0.08029242  0.53380682  0.62962963  0.22305048  0.455301    0.3636569
   0.66939394  0.71111111  0.61909741  0.66724332]
 [ 0.52776739  0.7466143   0.79259259  0.71595068  0.75728008  0.26538034
   0.61695521  0.6962963   0.49760011  0.59628349]
 [ 0.28533665  0.63589015  0.66666667  0.57893069  0.62292612  0.00181818
   0.50083333  0.56296296  0.02788867  0.36656146]
 [ 0.          0.5         0.65925926  0.          0.39727273  0.39529347
   0.69691392  0.7         0.68971305  0.69493575]
 [ 0.          0.5         0.68148148  0.          0.40521739  0.
   0.5         0.64074074  0.          0.39045455]
 [ 0.          0.5         0.5962963   0.          0.37352008  0.1382266
   0.55555556  0.6962963   0.28629448  0.50635005]
 [ 0.37720654  0.67702652  0.71851852  0.61495222  0.67072365  0.01390728
   0.50596591  0.5962963   0.06030227  0.38903654]
 [ 0.          0.5         0.85185185  0.          0.46        0.12019466
   0.5524131   0.63703704  0.3115542   0.48756865]
 [ 0.          0.5         0.68888889  0.          0.40782609  0.05818362
   0.52666667  0.57777778  0.17882522  0.41836103]
 [ 0.05935093  0.52291667  0.68148148  0.16774952  0.45332276  0.18382424
   0.57823529  0.68148148  0.38815686  0.53960495]
 [ 0.          0.5         0.76666667  0.          0.43390957 -0.01477273
   0.49285714  0.5037037   0.          0.33487805]
 [ 0.35176661  0.67664835  0.67407407  0.6588013   0.66728453  0.
   0.5         0.65925926  0.          0.39727273]
 [ 0.          0.5         0.57407407  0.          0.36461794  0.
   0.5         0.74444444  0.          0.42672872]
 [-0.02391505  0.48820513  0.51111111  0.13272992  0.36680407  0.44102202
   0.71227273  0.73703704  0.66684659  0.70443714]
 [ 0.1933332   0.58785985  0.64074074  0.40723977  0.53152439  0.45715412
   0.72802198  0.72962963  0.70909142  0.72106901]
 [ 0.10845967  0.55160256  0.58148148  0.33755272  0.46909429  0.4386492
   0.71666667  0.72592593  0.70441596  0.71559899]
 [ 0.41853609  0.67891082  0.79259259  0.60366826  0.69451707  0.56238873
   0.78104396  0.78148148  0.77259674  0.77792334]
 [ 0.          0.5         0.63333333  0.          0.38772727  0.43215228
   0.70252674  0.74444444  0.66565012  0.70708475]
 [ 0.          0.5         0.62222222  0.          0.38350951  0.34196499
   0.66807692  0.68148148  0.64474193  0.66391139]
 [ 0.76904863  0.88385361  0.89259259  0.87885216  0.88370535  0.36378675
   0.66996732  0.73703704  0.62172963  0.67330545]]
SVM mean:
[0.22527196 0.60770819 0.69481481 0.36944449 0.55805482 0.24825369
 0.61971147 0.69098765 0.42085981 0.57787048]
---------------------------
---------------------------
GBM performance:
[[ 0.52922252  0.76173077  0.77777778  0.73497251  0.75657871  0.35052594
   0.63809524  0.82222222  0.48145316  0.6490887 ]
 [ 0.46309886  0.73374542  0.74814815  0.71393052  0.72997777  0.44151311
   0.70470922  0.75925926  0.64459845  0.70284908]
 [ 0.47153092  0.72215909  0.75555556  0.67870543  0.72298285  0.37766994
   0.68381868  0.68888889  0.64905739  0.67768117]
 [ 0.39539438  0.70152015  0.7037037   0.69148914  0.69965179  0.08365001
   0.52540414  0.72592593  0.15857529  0.47326185]
 [ 0.54147334  0.7510361   0.7962963   0.70298627  0.75311237  0.49264168
   0.74478022  0.74814815  0.7271702   0.73963224]
 [ 0.5187498   0.76373626  0.76296296  0.75821262  0.76077485  0.60769556
   0.80397436  0.81111111  0.78544343  0.80354297]
 [ 0.38928172  0.67874666  0.71851852  0.64338122  0.67997981  0.36995082
   0.68516484  0.68518519  0.67993726  0.68281849]
 [ 0.81408119  0.89444444  0.92222222  0.88768058  0.90620599  0.59283332
   0.79053476  0.81851852  0.77815035  0.79730644]
 [ 0.2519459   0.60336257  0.74814815  0.44198507  0.59411796  0.10332594
   0.5440424   0.70740741  0.2045768   0.49162385]
 [ 0.2901464   0.64416667  0.64814815  0.62908792  0.63890239  0.41919655
   0.70378205  0.71111111  0.68574611  0.69829975]
 [ 0.22130712  0.6046123   0.66666667  0.50975199  0.5904872   0.51184004
   0.73522727  0.76296296  0.71836301  0.738456  ]
 [ 0.53616453  0.75548797  0.79259259  0.73019014  0.76209544  0.56062132
   0.77312834  0.7962963   0.76329916  0.77896231]
 [ 0.46347267  0.71785985  0.74444444  0.68054845  0.71648707  0.22648136
   0.62125     0.64444444  0.58189061  0.61513718]
 [ 0.10617435  0.54333333  0.67777778  0.29670248  0.4961794   0.39816774
   0.6910348   0.7037037   0.66386131  0.68430214]
 [ 0.02210084  0.50917398  0.68148148  0.08022464  0.43060136  0.16143754
   0.56568627  0.67407407  0.35600938  0.5264399 ]
 [ 0.12038411  0.55774064  0.63703704  0.2997676   0.49815476  0.39919776
   0.67578431  0.77037037  0.59112683  0.67887394]
 [ 0.69786503  0.84534091  0.85925926  0.83727414  0.85121977  0.45482081
   0.715625    0.75555556  0.66423703  0.71206313]
 [ 0.12915543  0.54782609  0.86296296  0.17071068  0.53602551  0.44924139
   0.71144385  0.74074074  0.69318754  0.71637694]
 [ 0.28996588  0.63198099  0.74444444  0.47966618  0.61825782  0.51083384
   0.73583333  0.75555556  0.71085752  0.73164134]
 [ 0.29679388  0.63070175  0.73703704  0.52302456  0.62416642  0.34471077
   0.65264706  0.72592593  0.57740181  0.64894207]
 [-0.00677966  0.49761905  0.76296296  0.          0.43271277  0.15924476
   0.5793956   0.58148148  0.56959029  0.57381414]
 [ 0.34142951  0.6782967   0.67777778  0.67175247  0.67646589  0.44436031
   0.70111111  0.77407407  0.64336718  0.71193419]
 [ 0.26955916  0.62753788  0.66666667  0.54550497  0.61098592  0.12273871
   0.54404762  0.76666667  0.22980707  0.50907064]
 [ 0.41537362  0.6953022   0.7         0.69317142  0.69349067  0.46026202
   0.7286553   0.73703704  0.71846941  0.72725303]
 [ 0.46498755  0.719375    0.75555556  0.6605199   0.71429648  0.58370274
   0.78434066  0.78518519  0.78709697  0.78300466]
 [ 0.28890605  0.64421245  0.66296296  0.541922    0.61553467  0.46394907
   0.72833333  0.74074074  0.7054834   0.72594421]
 [ 0.39262103  0.66878655  0.77777778  0.59837911  0.68218728  0.55417521
   0.78076923  0.78148148  0.77055467  0.77681824]
 [ 0.16529032  0.57107843  0.67037037  0.39595084  0.53711223  0.46606492
   0.71673128  0.76296296  0.67240271  0.72115336]
 [ 0.29782816  0.63192513  0.71111111  0.53488557  0.62249996  0.24279293
   0.62324176  0.63703704  0.60862499  0.61741124]
 [ 0.63204666  0.81005682  0.82962963  0.8026482   0.81475823  0.32466859
   0.64578431  0.73333333  0.56065545  0.64244443]]
GBM mean:
[0.36031904 0.67142987 0.74       0.56450089 0.65886678 0.38927716
 0.68447921 0.73691358 0.61269983 0.67787159]
---------------------------
---------------------------
BDDAE performance:
[[-0.11882716  0.44166667  0.46111111  0.39817819  0.42940872 -0.03668352
   0.48658537  0.73888889  0.          0.42479503]
 [ 0.36968609  0.68517241  0.68703704  0.68114931  0.68342498  0.50836776
   0.7478355   0.77222222  0.73547808  0.75180743]
 [ 0.09117216  0.54460028  0.56666667  0.5088102   0.53583282  0.07676703
   0.53791209  0.54444444  0.48685361  0.51612876]
 [ 0.1118837   0.55531034  0.56296296  0.53719447  0.54976972  0.24378315
   0.60948718  0.73518519  0.52292615  0.61069022]
 [ 0.41748087  0.6982684   0.73703704  0.66793881  0.70178219  0.38501353
   0.69244505  0.69259259  0.68582052  0.68970964]
 [ 0.53659071  0.76813187  0.76851852  0.76309068  0.76648675 -0.02155235
   0.49        0.49074074  0.44849936  0.46950587]
 [ 0.05030284  0.52159091  0.57777778  0.41525993  0.49394265  0.01011485
   0.50480769  0.50925926  0.48515326  0.4973428 ]
 [ 0.38362071  0.66944444  0.76296296  0.5955505   0.67553639 -0.02169862
   0.48982684  0.55        0.40086443  0.47234894]
 [ 0.51266736  0.728125    0.81851852  0.68251501  0.74801578  0.51962011
   0.72376789  0.82407407  0.6657503   0.74831714]
 [ 0.09684581  0.54848901  0.55        0.53605386  0.54293702  0.2555602
   0.62710345  0.63148148  0.62029764  0.6254453 ]
 [ 0.04767495  0.52099567  0.57962963  0.42949303  0.50050237  0.27642396
   0.62855114  0.67592593  0.57070667  0.62206919]
 [ 0.02420945  0.51168831  0.57777778  0.38970854  0.48186233  0.32353732
   0.65930736  0.68518519  0.63680539  0.65607996]
 [ 0.10749497  0.55343619  0.57037037  0.53167138  0.54843697  0.2488137
   0.62458333  0.63148148  0.60029566  0.61485745]
 [ 0.10189725  0.54861111  0.63333333  0.45003549  0.5313152   0.34325196
   0.67193103  0.67222222  0.66872133  0.66998619]
 [ 0.05641265  0.52241653  0.65925926  0.36104614  0.49954844  0.1813891
   0.58511278  0.65555556  0.51612067  0.57654466]
 [ 0.12272959  0.5640625   0.56666667  0.53742426  0.54756188  0.20548986
   0.58333333  0.71481481  0.42348989  0.56212652]
 [ 0.60036572  0.80610795  0.80555556  0.79594836  0.79680068  0.25568856
   0.61619318  0.67222222  0.52653809  0.59939864]
 [ 0.2870519   0.62907609  0.85185185  0.51601318  0.63516587 -0.03802917
   0.48238636  0.55740741  0.20343682  0.40592849]
 [ 0.3020468   0.63759936  0.72777778  0.57803641  0.64142471  0.27031662
   0.63291667  0.64814815  0.60656416  0.62664997]
 [ 0.19168202  0.59166667  0.66296296  0.52722746  0.5840976   0.06179544
   0.52558824  0.63333333  0.28828947  0.46653925]
 [ 0.17529786  0.57579737  0.76666667  0.38931318  0.5625167   0.18606602
   0.59271978  0.59444444  0.58745292  0.59093725]
 [ 0.02222222  0.51111111  0.51111111  0.48867123  0.50021784  0.0395459
   0.51805556  0.64259259  0.32168888  0.48250727]
 [ 0.10168699  0.55070126  0.56851852  0.51918536  0.5414968   0.47141992
   0.71035714  0.81851852  0.67180375  0.73224893]
 [ 0.09570034  0.5478022   0.55        0.537731    0.54385585  0.32967978
   0.66166667  0.67592593  0.64533125  0.66024907]
 [ 0.0923551   0.54453015  0.56851852  0.51235131  0.53806547  0.05925926
   0.52962963  0.52962963  0.52571833  0.5277365 ]
 [ 0.17312375  0.586       0.59444444  0.5623877   0.57822415  0.19284338
   0.59291667  0.61481481  0.5558294   0.58477326]
 [ 0.41839589  0.70119237  0.76481481  0.67168246  0.70629166  0.5037037
   0.75185185  0.75185185  0.74196676  0.7479154 ]
 [-0.03853508  0.48176471  0.54444444  0.39966052  0.47047853  0.4090309
   0.69829545  0.72407407  0.68055186  0.70074183]
 [ 0.20447888  0.59705882  0.64814815  0.55804641  0.59603152  0.33880293
   0.66606897  0.67777778  0.64392632  0.66180213]
 [ 0.2829516   0.63529412  0.68333333  0.59792789  0.63446202  0.10135099
   0.54330827  0.64814815  0.39960795  0.51729248]]
BDDAE mean:
[0.1940222  0.59259039 0.64425926 0.53797674 0.58551645 0.22265574
 0.60615148 0.65709877 0.52888296 0.59374919]
---------------------------
---------------------------
DUMMY performance:
[[0.         0.5        0.55185185 0.         0.35557491 0.
  0.5        0.75555556 0.         0.43031915]
 [0.         0.5        0.54074074 0.         0.35087108 0.
  0.5        0.61481481 0.         0.38065539]
 [0.         0.5        0.57037037 0.         0.36312292 0.
  0.5        0.52222222 0.         0.34303136]
 [0.         0.5        0.53333333 0.         0.34773519 0.
  0.5        0.71851852 0.         0.41803885]
 [0.         0.5        0.61111111 0.         0.37922833 0.
  0.5        0.51111111 0.         0.33817073]
 [0.         0.5        0.51481481 0.         0.33981707 0.
  0.5        0.52962963 0.         0.34616725]
 [0.         0.5        0.6        0.         0.37494715 0.
  0.5        0.51851852 0.         0.34146341]
 [0.         0.5        0.67407407 0.         0.4026087  0.
  0.5        0.61111111 0.         0.37922833]
 [0.         0.5        0.6962963  0.         0.41043478 0.
  0.5        0.68888889 0.         0.40782609]
 [0.         0.5        0.52222222 0.         0.34303136 0.
  0.5        0.53703704 0.         0.34930314]
 [0.         0.5        0.60740741 0.         0.37780127 0.
  0.5        0.58518519 0.         0.36910299]
 [0.         0.5        0.61481481 0.         0.38065539 0.
  0.5        0.61851852 0.         0.38208245]
 [0.         0.5        0.56666667 0.         0.36162791 0.
  0.5        0.56296296 0.         0.36013289]
 [0.         0.5        0.65925926 0.         0.39727273 0.
  0.5        0.52962963 0.         0.34616725]
 [0.         0.5        0.68148148 0.         0.40521739 0.
  0.5        0.64074074 0.         0.39045455]
 [0.         0.5        0.5962963  0.         0.37352008 0.
  0.5        0.66296296 0.         0.39863636]
 [0.         0.5        0.58518519 0.         0.36910299 0.
  0.5        0.59259259 0.         0.37209302]
 [0.         0.5        0.85185185 0.         0.46       0.
  0.5        0.6        0.         0.37494715]
 [0.         0.5        0.68888889 0.         0.40782609 0.
  0.5        0.55555556 0.         0.35714286]
 [0.         0.5        0.67037037 0.         0.40130435 0.
  0.5        0.62962963 0.         0.38636364]
 [0.         0.5        0.76666667 0.         0.43390957 0.
  0.5        0.51111111 0.         0.33817073]
 [0.         0.5        0.50740741 0.         0.33652439 0.
  0.5        0.65925926 0.         0.39727273]
 [0.         0.5        0.57407407 0.         0.36461794 0.
  0.5        0.74444444 0.         0.42672872]
 [0.         0.5        0.52592593 0.         0.3445993  0.
  0.5        0.55925926 0.         0.35863787]
 [0.         0.5        0.56666667 0.         0.36162791 0.
  0.5        0.5037037  0.         0.33487805]
 [0.         0.5        0.53703704 0.         0.34930314 0.
  0.5        0.55555556 0.         0.35714286]
 [0.         0.5        0.69259259 0.         0.40913043 0.
  0.5        0.48148148 0.         0.325     ]
 [0.         0.5        0.63333333 0.         0.38772727 0.
  0.5        0.6        0.         0.37494715]
 [0.         0.5        0.62222222 0.         0.38350951 0.
  0.5        0.54074074 0.         0.35087108]
 [0.         0.5        0.62222222 0.         0.38350951 0.
  0.5        0.65185185 0.         0.39454545]]
DUMMY mean:
[0.         0.5        0.61283951 0.         0.37853862 0.
 0.5        0.59308642 0.         0.37098405]
---------------------------
Current folder: C:\Users\Javier\Dropbox\c_sldl_1_2_28
-------------------------------------
----- RESULTS from .csv files ------
-------------------------------------
---------------------------
ALG Means: 
-rows: alg : KNN = 0; DT = 1; RF = 2; SVM = 3; GBM = 4; BDDAE = 5; DUMMY = 5
columns:
'val_cohen','val_uar', 'val_acc', 'val_gm',  'val_f1',  'aro_cohen','aro_uar', 'aro_acc', 'aro_gm',  'aro_f1'
-------------------------------------------------------------
  v_c   v_u   v_a   v_g   v_f1  a_c   a_u   a_a   a_g   a_f1
[[0.42  0.706 0.742 0.678 0.706 0.444 0.719 0.745 0.7   0.718]
 [0.407 0.705 0.729 0.69  0.702 0.434 0.715 0.73  0.705 0.712]
 [0.452 0.718 0.748 0.702 0.717 0.482 0.741 0.76  0.73  0.74 ]
 [0.225 0.608 0.695 0.369 0.558 0.248 0.62  0.691 0.421 0.578]
 [0.36  0.671 0.74  0.565 0.659 0.389 0.684 0.737 0.613 0.678]
 [0.194 0.593 0.644 0.538 0.586 0.223 0.606 0.657 0.529 0.594]
 [0.    0.5   0.613 0.    0.379 0.    0.5   0.593 0.    0.371]]
-------------------------------------------------------------
Standard Deviation of each metric:
[[0.177 0.089 0.08  0.116 0.09  0.122 0.063 0.056 0.073 0.062]
 [0.166 0.086 0.078 0.096 0.086 0.119 0.059 0.06  0.069 0.061]
 [0.174 0.085 0.077 0.117 0.087 0.13  0.068 0.066 0.073 0.069]
 [0.233 0.113 0.089 0.313 0.157 0.198 0.098 0.064 0.302 0.143]
 [0.19  0.095 0.068 0.214 0.113 0.149 0.076 0.054 0.166 0.088]
 [0.176 0.085 0.101 0.109 0.092 0.169 0.081 0.083 0.163 0.097]
 [0.    0.    0.078 0.    0.029 0.    0.    0.072 0.    0.028]]
-------------------------------------------------------------
std_dev/mean [percentage]:
[[ 42.  13.  11.  17.  13.  27.   9.   8.  10.   9.]
 [ 41.  12.  11.  14.  12.  27.   8.   8.  10.   9.]
 [ 38.  12.  10.  17.  12.  27.   9.   9.  10.   9.]
 [103.  19.  13.  85.  28.  80.  16.   9.  72.  25.]
 [ 53.  14.   9.  38.  17.  38.  11.   7.  27.  13.]
 [ 91.  14.  16.  20.  16.  76.  13.  13.  31.  16.]
 [  0.   0.  13.   0.   8.   0.   0.  12.   0.   8.]]
-------------------------------------
Current folder: C:\Users\Javier\Dropbox\c_sldl_1_2_28
-------------------------------------
----- RESULTS ------
-------------------------------------
Window size (sec):  8.992
step (sec):  4.496
overlap:  True
perc. of overlap:  50.0
overlap duration (sec):  4.496
Number of windows / instances:  270
Elapsed time: 769.6454023798307 minutes
Elapsed time: 12.827423372997178 hours
