2024-03-18 10:50:02.095362: I tensorflow/core/util/port.cc:113] oneDNN custom operations are on. You may see slightly different numerical results due to floating-point round-off errors from different computation orders. To turn them off, set the environment variable `TF_ENABLE_ONEDNN_OPTS=0`.
2024-03-18 10:50:05.948679: I tensorflow/core/util/port.cc:113] oneDNN custom operations are on. You may see slightly different numerical results due to floating-point round-off errors from different computation orders. To turn them off, set the environment variable `TF_ENABLE_ONEDNN_OPTS=0`.
2024-03-18 10:50:16.453802: I tensorflow/core/platform/cpu_feature_guard.cc:210] This TensorFlow binary is optimized to use available CPU instructions in performance-critical operations.
To enable the following instructions: AVX2 FMA, in other operations, rebuild TensorFlow with the appropriate compiler flags.
all algorithm performance files were created correctly before
loading data already saved in algorithm performance files
    
    
-------------------------------
participant:  1
-------------------------------
    
    
participant:  1
corriendo en PC gamer:
Window size (sec):  25.0
step (sec):  18.75
overlap:  True
perc. of overlap:  25.0
overlap duration (sec):  6.25
Nearest multiple of 16 to 25000 is: 24992
Nearest multiple of 16 to 18750 is: 18752
['gsr_chunks', 'ppg_chunks', 'val_chunks', 'aro_chunks', 'time_chunks', 'tag_chunks', 'video']
C:\Users\Javier\Dropbox\c_sldl_1_2_18\functions.py:880: FutureWarning: ChainedAssignmentError: behaviour will change in pandas 3.0!


[1m1/1[0m [32m━━━━━━━━━━━━━━━━━━━━[0m[37m[0m [1m0s[0m 109ms/step
[1m1/1[0m [32m━━━━━━━━━━━━━━━━━━━━[0m[37m[0m [1m0s[0m 109ms/step
predicted [0.40405095 0.37566426 0.33079225 0.22913207 0.20600608 0.67359525
 0.5802057  0.379615   0.2118968  0.19407023 0.4682645  0.33713365
 0.29741168]
predicted [0 0 0 0 0 1 1 0 0 0 0 0 0]
expected [False  True  True  True  True False False  True  True False False  True
  True]
accuracy: 0.23076923076923078
confusion matrix: 
[[3 2]
 [8 0]]
              precision    recall  f1-score   support

       False       0.27      0.60      0.38         5
        True       0.00      0.00      0.00         8

    accuracy                           0.23        13
   macro avg       0.14      0.30      0.19        13
weighted avg       0.10      0.23      0.14        13

macro avg f1-score: 0.1875
macro avg (UAR): 0.3
Sensitivity:  0.6
Specificity:  0.0
g-mean:  0.0
-------- Model Performance ----------: 
accuracy:  [0.53846154 0.61538462 0.76923077 0.76923077 0.61538462 0.69230769
 0.38461538 0.76923077 0.53846154 0.23076923]
gmean:  [0.         0.61237244 0.72456884 0.77459667 0.54772256 0.70710678
 0.38729833 0.72456884 0.54772256 0.        ]
f1_score:  [0.35       0.60606061 0.74509804 0.76363636 0.5751634  0.69047619
 0.38095238 0.74509804 0.53571429 0.1875    ]
UAR:  [0.4375 0.6125 0.7375 0.775  0.575  0.7125 0.3875 0.7375 0.55   0.3   ]
Cohen Kappa score:  [-0.14705882  0.21686747  0.49350649  0.53012048  0.15584416  0.39534884
 -0.20930233  0.49350649  0.09302326 -0.32653061]
arousal and valece = ok
------------- Evaluating model --------------
-------------------------------------
-------------------------------------
participant:  30
-------------------------------------
----- RESULTS ------
-------------------------------------
Window size (sec):  24.992
step (sec):  18.752
overlap:  True
perc. of overlap:  24.96798975672215
overlap duration (sec):  6.24
Number of windows / instances:  61
-rows: alg : KNN = 0; DT = 1; RF = 2; SVM = 3; GBM = 4; BDDAE = 5; DUMMY = 5
columns:
'val_cohen','val_uar', 'val_acc', 'val_gm',  'val_f1',  'aro_cohen','aro_uar', 'aro_acc', 'aro_gm',  'aro_f1'
-------------------------------------------------------------
  v_c   v_u   v_a   v_g   v_f1  a_c   a_u   a_a   a_g   a_f1
[[ 0.907  0.958  0.95   0.952  0.95   0.381  0.696  0.752  0.548  0.666]
 [ 0.748  0.842  0.871  0.794  0.843  0.574  0.754  0.776  0.635  0.729]
 [ 0.67   0.879  0.886  0.726  0.877  0.545  0.783  0.821  0.62   0.756]
 [ 0.     0.5    0.624  0.     0.383  0.     0.5    0.657  0.     0.396]
 [ 0.694  0.867  0.888  0.794  0.872  0.459  0.692  0.743  0.651  0.69 ]
 [ 0.17   0.582  0.592  0.503  0.558 -0.07   0.461  0.523  0.391  0.452]
 [ 0.     0.5    0.624  0.     0.383  0.     0.5    0.657  0.     0.396]]
participant performance loaded
    
    
-------------------------------
LAST participant's saved data: 
30
-------------------------------
    
    
---------------------------
KNN performance:
[[ 0.66969697  0.83333333  0.83809524  0.8121027   0.82654762  0.51345756
   0.775       0.82380952  0.663096    0.73462121]
 [ 0.3080303   0.6625      0.6547619   0.61812865  0.63761905  0.33095238
   0.65833333  0.70714286  0.52021147  0.63691919]
 [ 0.37862138  0.6875      0.7047619   0.58365344  0.65198413  0.42222222
   0.7125      0.70714286  0.65252919  0.6897619 ]
 [ 0.53866667  0.775       0.76904762  0.74743123  0.75738095 -0.02714286
   0.49        0.63809524  0.17071068  0.46323232]
 [ 0.64112554  0.80833333  0.8547619   0.72760209  0.80083333  0.41666667
   0.70833333  0.71666667  0.65806728  0.69666667]
 [ 0.54166667  0.77083333  0.77142857  0.75386846  0.76380952  0.70956522
   0.85833333  0.85238095  0.84006135  0.84599206]
 [ 0.41313665  0.69583333  0.73571429  0.64644029  0.69829365  0.46956522
   0.73333333  0.73571429  0.65705168  0.70753968]
 [ 0.66857143  0.84        0.86666667  0.77228543  0.81777778  0.57936508
   0.79583333  0.79047619  0.77270587  0.7768254 ]
 [ 0.27380952  0.63333333  0.7047619   0.47336928  0.62055556  0.15642857
   0.5675      0.67619048  0.37336928  0.54843074]
 [ 0.18933333  0.6         0.59047619  0.55756807  0.57869048  0.08424908
   0.55        0.5547619   0.46420463  0.52059524]
 [ 0.25171429  0.62083333  0.69047619  0.47163087  0.59960317  0.34202899
   0.675       0.72380952  0.52834756  0.64884921]
 [ 0.43866667  0.70833333  0.76904762  0.59823536  0.7015873   0.37971861
   0.7         0.70952381  0.58757746  0.65789683]
 [ 0.36136364  0.68333333  0.68809524  0.5799765   0.64642857  0.28266667
   0.64166667  0.65714286  0.5213666   0.60535714]
 [ 0.0302381   0.5175      0.58809524  0.38179602  0.50861111  0.416
   0.70833333  0.70714286  0.60755948  0.67511905]
 [ 0.00623249  0.495       0.60714286  0.23194792  0.47092713  0.23266046
   0.60833333  0.65238095  0.53876193  0.61027778]
 [ 0.0224026   0.51666667  0.58809524  0.23563894  0.45440476  0.17272727
   0.575       0.65952381  0.4053172   0.56444444]
 [ 0.19547619  0.59166667  0.6047619   0.50530253  0.5665873   0.07142857
   0.5375      0.57619048  0.38922988  0.50190476]
 [        nan         nan         nan  0.28164966         nan  0.41428571
   0.70416667  0.72142857  0.68437351  0.7009127 ]
 [ 0.1404489   0.5875      0.67380952  0.35545222  0.53551587  0.29230769
   0.64583333  0.64285714  0.57449042  0.6175    ]
 [ 0.30422078  0.64166667  0.7047619   0.51770685  0.63130952  0.2017619
   0.60416667  0.66904762  0.36450645  0.55011905]
 [-0.07538961  0.475       0.6547619   0.1244828   0.42743506  0.07645688
   0.53333333  0.52142857  0.46177904  0.50595238]
 [ 0.14166667  0.57083333  0.57142857  0.54579762  0.55904762  0.49580952
   0.75        0.76904762  0.70577493  0.74170635]
 [ 0.17214286  0.5875      0.60714286  0.46812865  0.55616522  0.23882353
   0.6325      0.76904762  0.39101747  0.59414141]
 [ 0.00564103  0.5         0.49285714  0.41354536  0.46095238  0.51969697
   0.75833333  0.77142857  0.73340132  0.75059524]
 [ 0.31433333  0.6625      0.65714286  0.62133261  0.6427381   0.60289855
   0.8         0.80238095  0.77979044  0.79361111]
 [ 0.24166667  0.625       0.63809524  0.52666389  0.59642857  0.33033333
   0.66666667  0.66904762  0.62326254  0.6522619 ]
 [ 0.47310924  0.7125      0.81904762  0.59497475  0.72424242  0.52564103
   0.7625      0.75952381  0.74907312  0.75595238]
 [ 0.16904762  0.58333333  0.63809524  0.48244631  0.58007937  0.46961905
   0.72916667  0.76904762  0.6476181   0.71412698]
 [ 0.32333333  0.67083333  0.67142857  0.61661111  0.64392857  0.31449275
   0.65833333  0.67857143  0.46378638  0.6034127 ]
 [ 0.90666667  0.95833333  0.95        0.95236034  0.94952381  0.38146998
   0.69583333  0.75238095  0.5480399   0.66626984]
 [ 0.66969697  0.83333333  0.83809524  0.8121027   0.82654762  0.51345756
   0.775       0.82380952  0.663096    0.73462121]
 [ 0.3080303   0.6625      0.6547619   0.61812865  0.63761905  0.33095238
   0.65833333  0.70714286  0.52021147  0.63691919]
 [ 0.37862138  0.6875      0.7047619   0.58365344  0.65198413  0.42222222
   0.7125      0.70714286  0.65252919  0.6897619 ]
 [ 0.53866667  0.775       0.76904762  0.74743123  0.75738095 -0.02714286
   0.49        0.63809524  0.17071068  0.46323232]
 [ 0.64112554  0.80833333  0.8547619   0.72760209  0.80083333  0.41666667
   0.70833333  0.71666667  0.65806728  0.69666667]
 [ 0.54166667  0.77083333  0.77142857  0.75386846  0.76380952  0.70956522
   0.85833333  0.85238095  0.84006135  0.84599206]
 [ 0.41313665  0.69583333  0.73571429  0.64644029  0.69829365  0.46956522
   0.73333333  0.73571429  0.65705168  0.70753968]
 [ 0.66857143  0.84        0.86666667  0.77228543  0.81777778  0.57936508
   0.79583333  0.79047619  0.77270587  0.7768254 ]
 [ 0.27380952  0.63333333  0.7047619   0.47336928  0.62055556  0.15642857
   0.5675      0.67619048  0.37336928  0.54843074]
 [ 0.18933333  0.6         0.59047619  0.55756807  0.57869048  0.08424908
   0.55        0.5547619   0.46420463  0.52059524]
 [ 0.25171429  0.62083333  0.69047619  0.47163087  0.59960317  0.34202899
   0.675       0.72380952  0.52834756  0.64884921]
 [ 0.43866667  0.70833333  0.76904762  0.59823536  0.7015873   0.37971861
   0.7         0.70952381  0.58757746  0.65789683]
 [ 0.36136364  0.68333333  0.68809524  0.5799765   0.64642857  0.28266667
   0.64166667  0.65714286  0.5213666   0.60535714]
 [ 0.0302381   0.5175      0.58809524  0.38179602  0.50861111  0.416
   0.70833333  0.70714286  0.60755948  0.67511905]
 [ 0.00623249  0.495       0.60714286  0.23194792  0.47092713  0.23266046
   0.60833333  0.65238095  0.53876193  0.61027778]
 [ 0.0224026   0.51666667  0.58809524  0.23563894  0.45440476  0.17272727
   0.575       0.65952381  0.4053172   0.56444444]
 [ 0.19547619  0.59166667  0.6047619   0.50530253  0.5665873   0.07142857
   0.5375      0.57619048  0.38922988  0.50190476]
 [        nan  0.65666667  0.83809524  0.28164966  0.57772727  0.41428571
   0.70416667  0.72142857  0.68437351  0.7009127 ]
 [ 0.1404489   0.5875      0.67380952  0.35545222  0.53551587  0.29230769
   0.64583333  0.64285714  0.57449042  0.6175    ]
 [ 0.30422078  0.64166667  0.7047619   0.51770685  0.63130952  0.2017619
   0.60416667  0.66904762  0.36450645  0.55011905]
 [-0.07538961  0.475       0.6547619   0.1244828   0.42743506  0.07645688
   0.53333333  0.52142857  0.46177904  0.50595238]
 [ 0.14166667  0.57083333  0.57142857  0.54579762  0.55904762  0.49580952
   0.75        0.76904762  0.70577493  0.74170635]
 [ 0.17214286  0.5875      0.60714286  0.46812865  0.55616522  0.23882353
   0.6325      0.76904762  0.39101747  0.59414141]
 [ 0.00564103  0.5         0.49285714  0.41354536  0.46095238  0.51969697
   0.75833333  0.77142857  0.73340132  0.75059524]
 [ 0.31433333  0.6625      0.65714286  0.62133261  0.6427381   0.60289855
   0.8         0.80238095  0.77979044  0.79361111]
 [ 0.24166667  0.625       0.63809524  0.52666389  0.59642857  0.33033333
   0.66666667  0.66904762  0.62326254  0.6522619 ]
 [ 0.47310924  0.7125      0.81904762  0.59497475  0.72424242  0.52564103
   0.7625      0.75952381  0.74907312  0.75595238]
 [ 0.16904762  0.58333333  0.63809524  0.48244631  0.58007937  0.46961905
   0.72916667  0.76904762  0.6476181   0.71412698]
 [ 0.32333333  0.67083333  0.67142857  0.61661111  0.64392857  0.31449275
   0.65833333  0.67857143  0.46378638  0.6034127 ]
 [ 0.90666667  0.95833333  0.95        0.95236034  0.94952381  0.38146998
   0.69583333  0.75238095  0.5480399   0.66626984]]
KNN mean:
[0.31191862 0.65570621 0.69572236 0.53993766 0.63382616 0.34720522
 0.67452778 0.70611111 0.56923604 0.65103319]
---------------------------
---------------------------
DT performance:
[[ 4.80000000e-01  7.54166667e-01  7.50000000e-01  7.08483017e-01
   7.43452381e-01  3.24285714e-01  7.02500000e-01  7.90476190e-01
   4.62765437e-01  6.54458874e-01]
 [-1.08281573e-02  5.04166667e-01  5.42857143e-01  4.88165401e-01
   4.88134921e-01  4.47077922e-01  7.50000000e-01  7.73809524e-01
   7.01309111e-01  7.14736652e-01]
 [ 1.44761905e-01  6.12500000e-01  5.92857143e-01  5.55890470e-01
   5.47023810e-01  3.22222222e-01  6.79166667e-01  6.73809524e-01
   6.12455699e-01  6.59285714e-01]
 [ 2.77156177e-01  6.87500000e-01  6.76190476e-01  6.65481375e-01
   6.68333333e-01  2.39648033e-01  6.00000000e-01  6.90476190e-01
   4.27349244e-01  5.70732323e-01]
 [ 3.37277056e-01  6.83333333e-01  6.73809524e-01  6.50265374e-01
   6.49166667e-01  4.94565217e-01  7.41666667e-01  7.52380952e-01
   7.75930562e-01  7.38055556e-01]
 [ 1.16666667e-01  5.58333333e-01  5.57142857e-01  4.81215700e-01
   5.30595238e-01  3.84848485e-01  6.79166667e-01  6.66666667e-01
   6.30806041e-01  6.57738095e-01]
 [ 1.39935065e-01  5.70833333e-01  6.02380952e-01  4.56349615e-01
   5.53769841e-01 -9.13043478e-02  4.54166667e-01  4.57142857e-01
   3.53678866e-01  4.37380952e-01]
 [ 7.63585434e-01  9.37500000e-01  9.52380952e-01  8.69445253e-01
   9.39422799e-01  5.58374741e-01  8.00000000e-01  8.04761905e-01
   7.59508530e-01  7.91111111e-01]
 [ 3.15238095e-01  6.20833333e-01  6.38095238e-01  5.62132034e-01
   6.04087302e-01  1.84548440e-01  5.20000000e-01  6.07142857e-01
   4.77466542e-01  4.99960317e-01]
 [ 2.52000000e-01  6.08333333e-01  6.02380952e-01  6.38119260e-01
   5.84642857e-01  4.70695971e-02  5.70833333e-01  5.90476190e-01
   4.52637860e-01  5.47500000e-01]
 [ 1.28457557e-01  6.04166667e-01  6.23809524e-01  4.79787706e-01
   5.56428571e-01  1.38961039e-01  5.50000000e-01  5.59523810e-01
   5.33111645e-01  5.34206349e-01]
 [ 7.14285714e-01  8.54166667e-01  8.85714286e-01  8.75164349e-01
   8.47936508e-01  6.22142857e-01  8.04166667e-01  8.04761905e-01
   8.46574359e-01  7.81904762e-01]
 [ 1.58181818e-01  5.75000000e-01  5.59523810e-01  4.97128303e-01
   5.32142857e-01  7.38095238e-02  5.37500000e-01  5.42857143e-01
   4.44025224e-01  5.08571429e-01]
 [ 1.40714286e-01  6.05000000e-01  6.71428571e-01  3.85290555e-01
   5.85515873e-01  3.36231884e-01  6.83333333e-01  6.85714286e-01
   4.90569149e-01  6.61706349e-01]
 [ 1.38300493e-01  5.62500000e-01  6.07142857e-01  4.15904153e-01
   5.40198413e-01  3.38534799e-01  6.75000000e-01  7.21428571e-01
   5.16585705e-01  6.29206349e-01]
 [ 5.59090909e-02  5.25000000e-01  5.42857143e-01  4.88013939e-01
   4.77182540e-01  1.36635611e-01  5.75000000e-01  6.11904762e-01
   5.15659652e-01  5.72142857e-01]
 [ 7.30333333e-01  8.83333333e-01  8.85714286e-01  8.55574811e-01
   8.79642857e-01  5.42028986e-01  8.00000000e-01  7.92857143e-01
   8.75987225e-01  7.82857143e-01]
 [            nan             nan             nan  5.00000000e-01
              nan  4.75649351e-01  7.79166667e-01  8.04761905e-01
   6.95312492e-01  7.72857143e-01]
 [ 3.67394958e-01  6.95000000e-01  7.69047619e-01  5.61728151e-01
   6.74343434e-01  2.98974359e-01  6.20833333e-01  6.11904762e-01
   6.40657873e-01  6.05714286e-01]
 [ 5.95476190e-01  8.00000000e-01  8.16666667e-01  6.38013939e-01
   7.80277778e-01  1.06523810e-01  5.62500000e-01  6.19047619e-01
   3.71044865e-01  5.32301587e-01]
 [ 3.24675325e-04  5.07500000e-01  6.40476190e-01  3.81573711e-01
   4.50072150e-01  4.81666667e-01  7.50000000e-01  7.40476190e-01
   6.77251823e-01  7.29761905e-01]
 [ 3.82666667e-01  6.75000000e-01  6.73809524e-01  5.34577190e-01
   6.60238095e-01  3.39610390e-01  6.62500000e-01  6.83333333e-01
   5.69614939e-01  6.26904762e-01]
 [ 2.74565217e-01  6.08333333e-01  6.02380952e-01  5.31083565e-01
   5.76468254e-01  4.09761905e-01  6.77500000e-01  7.52380952e-01
   5.28551953e-01  6.26760462e-01]
 [ 1.75000000e-01  6.20833333e-01  6.21428571e-01  5.82603843e-01
   5.97976190e-01  4.25000000e-01  6.95833333e-01  7.21428571e-01
   5.98705244e-01  6.71190476e-01]
 [ 3.07142857e-01  7.50000000e-01  7.50000000e-01  5.90224743e-01
   7.22142857e-01  3.05333333e-01  7.04166667e-01  7.02380952e-01
   6.36914056e-01  6.91666667e-01]
 [ 1.98809524e-01  5.79166667e-01  5.88095238e-01  5.04665940e-01
   5.66547619e-01  2.67028986e-01  6.66666667e-01  6.61904762e-01
   6.37124395e-01  6.56190476e-01]
 [ 2.45755694e-01  6.32500000e-01  6.85714286e-01  5.78307452e-01
   6.16984127e-01  3.41666667e-01  6.54166667e-01  6.57142857e-01
   6.28623154e-01  6.45714286e-01]
 [ 1.70259740e-01  5.29166667e-01  5.88095238e-01  4.44079956e-01
   4.96626984e-01  3.63333333e-01  6.70833333e-01  6.88095238e-01
   5.74335612e-01  6.48214286e-01]
 [ 1.07142857e-01  4.79166667e-01  5.09523810e-01  4.15989178e-01
   4.41111111e-01  2.83695652e-01  6.20833333e-01  6.23809524e-01
   5.88965607e-01  6.05000000e-01]
 [ 7.47619048e-01  8.66666667e-01  8.88095238e-01  8.55018936e-01
   8.71746032e-01  5.32142857e-01  7.95833333e-01  8.23809524e-01
   6.77427369e-01  7.75833333e-01]
 [ 4.46666667e-01  7.70833333e-01  7.66666667e-01  7.55213809e-01
   7.60595238e-01  3.31593407e-01  6.12500000e-01  7.76190476e-01
   4.52714541e-01  5.79675325e-01]
 [-2.53419913e-02  5.00000000e-01  5.26190476e-01  3.60261491e-01
   4.74206349e-01  4.96428571e-01  7.41666667e-01  7.54761905e-01
   6.10782546e-01  7.29325397e-01]
 [ 1.36666667e-01  6.00000000e-01  5.76190476e-01  5.25078355e-01
   5.38690476e-01  3.22222222e-01  6.95833333e-01  6.90476190e-01
   6.12455699e-01  6.79642857e-01]
 [ 3.34181818e-01  6.54166667e-01  6.40476190e-01  6.27438691e-01
   6.31071429e-01  2.72981366e-01  6.50000000e-01  7.40476190e-01
   5.07533357e-01  6.39065657e-01]
 [ 3.95086580e-01  7.04166667e-01  6.90476190e-01  6.66157236e-01
   6.65357143e-01  4.40993789e-01  7.12500000e-01  7.16666667e-01
   7.27115026e-01  7.06309524e-01]
 [ 7.53623188e-02  5.87500000e-01  5.90476190e-01  5.20677789e-01
   5.56428571e-01  5.18181818e-01  7.45833333e-01  7.33333333e-01
   7.22563212e-01  7.24404762e-01]
 [ 1.63268398e-01  5.29166667e-01  5.54761905e-01  5.09297888e-01
   5.06468254e-01 -5.79710145e-02  4.37500000e-01  4.40476190e-01
   4.13786379e-01  3.92500000e-01]
 [ 8.82633053e-01  8.87500000e-01  9.16666667e-01  8.57313218e-01
   8.78412698e-01  5.85041408e-01  8.04166667e-01  8.04761905e-01
   7.70411587e-01  7.87896825e-01]
 [ 2.60238095e-01  6.45833333e-01  6.71428571e-01  5.73369278e-01
   6.25992063e-01  1.46117216e-01  5.45000000e-01  6.26190476e-01
   4.15473606e-01  5.44880952e-01]
 [ 1.92820513e-01  6.62500000e-01  6.54761905e-01  5.36857393e-01
   6.37380952e-01  8.87362637e-02  5.29166667e-01  5.57142857e-01
   4.71687533e-01  4.99404762e-01]
 [ 2.57028986e-01  5.79166667e-01  6.23809524e-01  4.66390246e-01
   5.45595238e-01  6.67532468e-02  5.50000000e-01  5.73809524e-01
   5.04964204e-01  5.34801587e-01]
 [ 7.14285714e-01  8.37500000e-01  8.69047619e-01  7.94690563e-01
   8.29841270e-01  5.36428571e-01  8.16666667e-01  8.21428571e-01
   7.32148042e-01  7.97182540e-01]
 [ 1.91515152e-01  6.20833333e-01  6.07142857e-01  5.02847399e-01
   5.71839827e-01  1.41000000e-01  5.83333333e-01  5.90476190e-01
   4.64517772e-01  5.56468254e-01]
 [ 1.35124224e-01  5.97500000e-01  6.57142857e-01  3.84290418e-01
   5.75515873e-01  3.08333333e-01  6.37500000e-01  6.38095238e-01
   5.39716941e-01  6.00833333e-01]
 [ 2.03300493e-01  5.87500000e-01  6.40476190e-01  4.23217372e-01
   5.70674603e-01  3.57582418e-01  6.70833333e-01  7.21428571e-01
   5.06822598e-01  6.29246032e-01]
 [ 7.40909091e-02  6.00000000e-01  6.26190476e-01  4.93185165e-01
   5.56984127e-01  6.80641822e-02  5.50000000e-01  5.78571429e-01
   4.54422409e-01  5.41071429e-01]
 [ 7.63666667e-01  8.83333333e-01  8.85714286e-01  8.79489442e-01
   8.79642857e-01  7.33695652e-01  7.75000000e-01  7.73809524e-01
   8.38566470e-01  7.59682540e-01]
 [            nan  7.30000000e-01  8.83333333e-01  6.00000000e-01
   7.16363636e-01  5.41125541e-01  7.29166667e-01  7.54761905e-01
   6.63564690e-01  7.18214286e-01]
 [ 3.67394958e-01  6.95000000e-01  7.69047619e-01  5.61728151e-01
   6.74343434e-01  2.50000000e-01  6.79166667e-01  6.73809524e-01
   6.79122366e-01  6.57023810e-01]
 [ 5.68809524e-01  7.25000000e-01  7.66666667e-01  6.24616479e-01
   6.98055556e-01 -1.80952381e-03  4.83333333e-01  5.33333333e-01
   4.26153353e-01  4.61428571e-01]
 [ 1.17952636e-02  5.85000000e-01  6.73809524e-01  2.63925516e-01
   5.26839827e-01  4.16666667e-01  7.45833333e-01  7.40476190e-01
   6.47021568e-01  7.22738095e-01]
 [ 2.26666667e-01  6.12500000e-01  6.09523810e-01  5.97451968e-01
   5.81428571e-01  3.06277056e-01  6.29166667e-01  6.50000000e-01
   5.51264597e-01  5.93571429e-01]
 [ 2.41231884e-01  6.50000000e-01  6.35714286e-01  5.00609779e-01
   6.12063492e-01  2.64775910e-01  6.77500000e-01  7.52380952e-01
   5.29966360e-01  6.26760462e-01]
 [ 1.49333333e-01  6.04166667e-01  6.07142857e-01  5.47451968e-01
   5.90357143e-01  3.91666667e-01  7.12500000e-01  7.38095238e-01
   5.58356956e-01  6.91547619e-01]
 [ 5.00000000e-01  7.50000000e-01  7.50000000e-01  7.04432930e-01
   7.37380952e-01  4.05333333e-01  7.20833333e-01  7.19047619e-01
   6.60828687e-01  7.06904762e-01]
 [ 1.33333333e-01  5.45833333e-01  5.57142857e-01  4.50676661e-01
   5.31904762e-01  3.26666667e-01  6.58333333e-01  6.61904762e-01
   6.27894491e-01  6.52023810e-01]
 [ 2.36231884e-01  6.32500000e-01  6.69047619e-01  5.03338562e-01
   6.14484127e-01  3.08695652e-01  6.70833333e-01  6.71428571e-01
   6.85862528e-01  6.63214286e-01]
 [ 2.10974026e-01  5.54166667e-01  5.90476190e-01  4.99251182e-01
   5.38055556e-01  3.96666667e-01  6.70833333e-01  6.88095238e-01
   6.20082061e-01  6.48214286e-01]
 [ 1.65952381e-01  5.04166667e-01  5.26190476e-01  3.80085969e-01
   4.51547619e-01  1.92028986e-01  6.25000000e-01  6.40476190e-01
   5.84631923e-01  6.15714286e-01]
 [ 7.47619048e-01  8.41666667e-01  8.71428571e-01  7.93781692e-01
   8.42579365e-01  5.74333333e-01  7.54166667e-01  7.76190476e-01
   6.34740588e-01  7.29285714e-01]]
DT mean:
[0.29679428 0.65368644 0.6763519  0.56822341 0.62885275 0.32431129
 0.66329167 0.6859127  0.58860204 0.64197829]
---------------------------
---------------------------
RF performance:
[[ 0.59166667  0.8375      0.83809524  0.79752937  0.82404762  0.46583851
   0.57        0.75714286  0.43086408  0.52131674]
 [ 0.36480331  0.60416667  0.60238095  0.75108632  0.58111111  0.23560041
   0.675       0.67619048  0.6826351   0.63313492]
 [ 0.38214286  0.73333333  0.74047619  0.59774164  0.7002381   0.23333333
   0.64166667  0.64047619  0.66885146  0.625     ]
 [ 0.34722222  0.6625      0.65714286  0.65958149  0.63607143  0.05445055
   0.62        0.72142857  0.20940759  0.59489899]
 [ 0.5482684   0.725       0.74285714  0.6955455   0.70103175  0.56004141
   0.6875      0.70714286  0.66328717  0.66916667]
 [ 0.40833333  0.64166667  0.63809524  0.61448378  0.60404762  0.67333333
   0.77916667  0.76904762  0.75707242  0.76253968]
 [ 0.3155176   0.66666667  0.70714286  0.59831277  0.65529221  0.20869565
   0.60416667  0.60714286  0.51866186  0.58047619]
 [ 0.84        0.9375      0.95        0.88660254  0.92285714  0.67795238
   0.86666667  0.8547619   0.81029548  0.84440476]
 [ 0.33139194  0.68333333  0.73809524  0.54532716  0.67007937  0.18432773
   0.5575      0.62380952  0.52513309  0.54301587]
 [ 0.052       0.55416667  0.55238095  0.5409014   0.51702381  0.07564103
   0.52083333  0.52619048  0.5312157   0.485     ]
 [ 0.2252381   0.69166667  0.72619048  0.48645025  0.66543651  0.42874459
   0.67083333  0.7047619   0.54693091  0.64202381]
 [ 0.5672381   0.8375      0.86666667  0.74979905  0.83746032  0.48248918
   0.66666667  0.69047619  0.51740858  0.63865079]
 [ 0.17469697  0.5875      0.57380952  0.61543716  0.52933983  0.10766046
   0.5625      0.56904762  0.37473395  0.54123016]
 [ 0.11357143  0.605       0.67142857  0.29695728  0.58801587  0.275
   0.66666667  0.66904762  0.54830418  0.64456349]
 [ 0.20885093  0.5775      0.65238095  0.28672018  0.56136724  0.28747619
   0.64166667  0.68809524  0.40229345  0.58154762]
 [ 0.10261905  0.55833333  0.58809524  0.39639163  0.5290873   0.44415584
   0.72916667  0.77380952  0.53726512  0.73107143]
 [ 0.68250518  0.85        0.85238095  0.87732923  0.84214286  0.36480952
   0.7375      0.74047619  0.65785774  0.70654762]
 [        nan         nan         nan  0.4                nan  0.39642857
   0.75416667  0.77380952  0.59212342  0.74972222]
 [ 0.55882353  0.7425      0.81904762  0.67870386  0.7410101   0.37866667
   0.78333333  0.78333333  0.67069853  0.7647619 ]
 [ 0.33017316  0.6875      0.72619048  0.61926719  0.66484127  0.09365079
   0.50833333  0.54047619  0.4469395   0.47825397]
 [-0.01        0.52        0.67142857  0.2526586   0.5085101   0.23333333
   0.6125      0.60952381  0.45687067  0.57285714]
 [ 0.53333333  0.67916667  0.67380952  0.65638361  0.64678571  0.50142857
   0.71666667  0.73571429  0.75112031  0.68722222]
 [ 0.27822323  0.55833333  0.56904762  0.43744533  0.51456349  0.46834734
   0.7575      0.8         0.55333856  0.71489899]
 [ 0.00564103  0.61666667  0.61904762  0.61516044  0.59892857  0.41345756
   0.65416667  0.65952381  0.72054565  0.63142857]
 [ 0.466       0.675       0.68809524  0.71222542  0.66718254  0.54166667
   0.80833333  0.8047619   0.73188377  0.80035714]
 [ 0.0207619   0.625       0.62380952  0.58776626  0.60654762  0.21366667
   0.6625      0.67142857  0.56195649  0.64797619]
 [ 0.41956583  0.6725      0.72142857  0.69475992  0.67357143  0.49230769
   0.69166667  0.69047619  0.67835029  0.68345238]
 [ 0.41298137  0.675       0.70952381  0.49614203  0.6509127   0.37509524
   0.7         0.71904762  0.79544656  0.69349206]
 [ 0.2563147   0.60416667  0.63809524  0.43562679  0.57888889  0.30512422
   0.6375      0.64047619  0.62653175  0.6147619 ]
 [ 0.79047619  0.82916667  0.85        0.88400999  0.81492063  0.47857143
   0.70833333  0.73809524  0.64657436  0.6806746 ]
 [ 0.56666667  0.8875      0.88571429  0.80555214  0.87515873  0.5502381
   0.68        0.83809524  0.48262788  0.65914141]
 [ 0.26289855  0.64583333  0.65714286  0.66773032  0.63194444  0.42095238
   0.6625      0.67142857  0.59079194  0.64456349]
 [ 0.36857143  0.73333333  0.75238095  0.54351742  0.70392857  0.472
   0.69166667  0.68809524  0.59132321  0.67488095]
 [ 0.37948718  0.73333333  0.72142857  0.73266465  0.71428571  0.10404762
   0.6175      0.71904762  0.50333856  0.57656566]
 [ 0.5482684   0.775       0.8047619   0.69204328  0.75956349  0.38424908
   0.72083333  0.71904762  0.66598332  0.71202381]
 [ 0.24615385  0.55833333  0.5547619   0.64081541  0.52166667  0.54289855
   0.78333333  0.76904762  0.80656462  0.75611111]
 [ 0.38861284  0.72916667  0.78571429  0.66131382  0.73488095  0.24202899
   0.54166667  0.5452381   0.4718744   0.52984127]
 [ 0.83333333  0.9         0.91666667  0.8280239   0.88349206  0.55428571
   0.74583333  0.7547619   0.75417532  0.73234127]
 [ 0.43647619  0.62083333  0.67142857  0.53284271  0.6065873   0.0957563
   0.5675      0.63809524  0.39925118  0.54718254]
 [ 0.155       0.55416667  0.5547619   0.56077202  0.52619048  0.09933333
   0.55        0.56904762  0.45646101  0.52214286]
 [ 0.30958874  0.56666667  0.62380952  0.48008597  0.5290873   0.18945887
   0.6375      0.67142857  0.52339468  0.62515873]
 [ 0.69047619  0.84583333  0.87142857  0.8165857   0.85369048  0.345671
   0.74583333  0.75952381  0.68430826  0.72488095]
 [ 0.21636364  0.625       0.6047619   0.60304752  0.57321429  0.275
   0.6375      0.65238095  0.58803327  0.6240873 ]
 [ 0.10880952  0.63        0.72142857  0.53033009  0.6122619   0.26956522
   0.6875      0.68809524  0.58928654  0.67166667]
 [ 0.11583851  0.675       0.78571429  0.37990534  0.67979798  0.4167619
   0.65416667  0.68809524  0.52431407  0.60730159]
 [ 0.11943001  0.5625      0.58809524  0.36569091  0.53575397  0.46330228
   0.625       0.67857143  0.71086661  0.61769841]
 [ 0.78866667  0.85        0.8547619   0.87237634  0.84761905  0.53917184
   0.77083333  0.79047619  0.6549122   0.74884921]
 [        nan  0.79166667  0.91904762  0.59128709  0.76060606  0.51731602
   0.75        0.76904762  0.7153031   0.74916667]
 [ 0.51596639  0.8325      0.87142857  0.70157475  0.82119048  0.44289855
   0.69583333  0.68809524  0.65197445  0.68416667]
 [ 0.27415584  0.69166667  0.73809524  0.52377286  0.67896825  0.08055556
   0.59166667  0.61904762  0.4122835   0.56964286]
 [ 0.13452381  0.515       0.70714286  0.28463619  0.46755051  0.27314286
   0.52083333  0.52142857  0.49372696  0.49535714]
 [ 0.316       0.66666667  0.65952381  0.57800316  0.63404762  0.53104762
   0.79166667  0.83333333  0.68437351  0.76884921]
 [ 0.22432712  0.65833333  0.65238095  0.51172096  0.63615079  0.24953782
   0.63        0.78571429  0.5280239   0.60467532]
 [ 0.19166667  0.58333333  0.58809524  0.57262847  0.57583333  0.48517316
   0.65        0.67142857  0.64893825  0.63666667]
 [ 0.56493506  0.72916667  0.74047619  0.62590982  0.72404762  0.50833333
   0.6875      0.68809524  0.76639298  0.68035714]
 [ 0.09642857  0.57916667  0.60714286  0.60269259  0.52857143  0.162
   0.5875      0.60238095  0.55184038  0.56492063]
 [ 0.48501401  0.7925      0.85        0.66655444  0.80694444  0.29230769
   0.775       0.77380952  0.75943275  0.77047619]
 [ 0.29772727  0.59166667  0.64047619  0.64760757  0.56380952  0.4267619
   0.74583333  0.73809524  0.61938193  0.72119048]
 [ 0.04409524  0.54583333  0.54761905  0.47479476  0.52162698  0.25367965
   0.70833333  0.72619048  0.56328717  0.69166667]
 [ 0.66961905  0.87916667  0.88571429  0.72556542  0.87650794  0.54457143
   0.78333333  0.82142857  0.62020125  0.7559127 ]]
RF mean:
[0.35633554 0.6845339  0.71472962 0.60143986 0.66468291 0.35638903
 0.67381944 0.69940476 0.59378775 0.65219889]
---------------------------
---------------------------
SVM performance:
[[ 0.          0.5         0.54047619  0.          0.34969697  0.
   0.5         0.77142857  0.          0.43439394]
 [ 0.          0.5         0.57380952  0.          0.3630303   0.
   0.5         0.62380952  0.          0.3830303 ]
 [ 0.          0.5         0.57380952  0.          0.3630303   0.27948718
   0.64166667  0.63809524  0.56328717  0.61011905]
 [ 0.03636364  0.51666667  0.53809524  0.05773503  0.37166667  0.
   0.5         0.72142857  0.          0.4180303 ]
 [ 0.          0.5         0.62380952  0.          0.3830303   0.46666667
   0.73333333  0.75        0.65924316  0.71261905]
 [-0.01733333  0.49166667  0.49047619  0.05773503  0.34880952  0.52108037
   0.7625      0.75238095  0.72540202  0.73992063]
 [ 0.          0.5         0.64047619  0.          0.38969697  0.04166667
   0.52083333  0.52142857  0.07071068  0.37083333]
 [ 0.          0.5         0.68809524  0.          0.40712121  0.
   0.5         0.60714286  0.          0.37636364]
 [ 0.          0.5         0.65714286  0.          0.39636364  0.
   0.5         0.68809524  0.          0.40712121]
 [ 0.          0.5         0.52380952  0.          0.3430303   0.
   0.5         0.55714286  0.          0.35636364]
 [ 0.          0.5         0.65714286  0.          0.39636364  0.
   0.5         0.59047619  0.          0.36969697]
 [ 0.          0.5         0.62380952  0.          0.3830303   0.
   0.5         0.62380952  0.          0.3830303 ]
 [ 0.          0.5         0.57380952  0.          0.3630303   0.
   0.5         0.52380952  0.          0.3430303 ]
 [ 0.          0.5         0.68809524  0.          0.40712121 -0.06133333
   0.47083333  0.46904762  0.08660254  0.35      ]
 [ 0.          0.5         0.68809524  0.          0.40712121  0.
   0.5         0.64047619  0.          0.38969697]
 [ 0.          0.5         0.62380952  0.          0.3830303   0.
   0.5         0.65714286  0.          0.39636364]
 [ 0.          0.5         0.57380952  0.          0.3630303   0.
   0.5         0.59047619  0.          0.36969697]
 [        nan         nan         nan  0.3                nan  0.
   0.5         0.59047619  0.          0.36969697]
 [ 0.          0.5         0.73809524  0.          0.42348485  0.
   0.5         0.52380952  0.          0.3430303 ]
 [ 0.          0.5         0.65714286  0.          0.39636364  0.
   0.5         0.62380952  0.          0.3830303 ]
 [ 0.          0.5         0.77142857  0.          0.43439394  0.
   0.5         0.52380952  0.          0.3430303 ]
 [ 0.016       0.50833333  0.50714286  0.05773503  0.35714286  0.
   0.5         0.62380952  0.          0.3830303 ]
 [ 0.          0.5         0.60714286  0.          0.37636364  0.
   0.5         0.7547619   0.          0.42893939]
 [ 0.          0.5         0.52380952  0.          0.3430303   0.06969697
   0.53333333  0.57142857  0.11547005  0.4075    ]
 [ 0.          0.5         0.57380952  0.          0.3630303   0.04166667
   0.52083333  0.52142857  0.07071068  0.37083333]
 [ 0.          0.5         0.54047619  0.          0.34969697  0.03333333
   0.51666667  0.55714286  0.05773503  0.37886364]
 [ 0.          0.5         0.68809524  0.          0.40712121  0.02564103
   0.5125      0.50952381  0.19284076  0.40130952]
 [ 0.          0.5         0.65714286  0.          0.39636364  0.
   0.5         0.60714286  0.          0.37636364]
 [ 0.          0.5         0.60714286  0.          0.37636364  0.
   0.5         0.55714286  0.          0.35636364]
 [ 0.          0.5         0.62380952  0.          0.3830303   0.
   0.5         0.65714286  0.          0.39636364]
 [ 0.          0.5         0.54047619  0.          0.34969697  0.
   0.5         0.77142857  0.          0.43439394]
 [ 0.          0.5         0.57380952  0.          0.3630303   0.
   0.5         0.62380952  0.          0.3830303 ]
 [ 0.          0.5         0.57380952  0.          0.3630303   0.27948718
   0.64166667  0.63809524  0.56328717  0.61011905]
 [ 0.03636364  0.51666667  0.53809524  0.05773503  0.37166667  0.
   0.5         0.72142857  0.          0.4180303 ]
 [ 0.          0.5         0.62380952  0.          0.3830303   0.46666667
   0.73333333  0.75        0.65924316  0.71261905]
 [-0.01733333  0.49166667  0.49047619  0.05773503  0.34880952  0.52108037
   0.7625      0.75238095  0.72540202  0.73992063]
 [ 0.          0.5         0.64047619  0.          0.38969697  0.04166667
   0.52083333  0.52142857  0.07071068  0.37083333]
 [ 0.          0.5         0.68809524  0.          0.40712121  0.
   0.5         0.60714286  0.          0.37636364]
 [ 0.          0.5         0.65714286  0.          0.39636364  0.
   0.5         0.68809524  0.          0.40712121]
 [ 0.          0.5         0.52380952  0.          0.3430303   0.
   0.5         0.55714286  0.          0.35636364]
 [ 0.          0.5         0.65714286  0.          0.39636364  0.
   0.5         0.59047619  0.          0.36969697]
 [ 0.          0.5         0.62380952  0.          0.3830303   0.
   0.5         0.62380952  0.          0.3830303 ]
 [ 0.          0.5         0.57380952  0.          0.3630303   0.
   0.5         0.52380952  0.          0.3430303 ]
 [ 0.          0.5         0.68809524  0.          0.40712121 -0.06133333
   0.47083333  0.46904762  0.08660254  0.35      ]
 [ 0.          0.5         0.68809524  0.          0.40712121  0.
   0.5         0.64047619  0.          0.38969697]
 [ 0.          0.5         0.62380952  0.          0.3830303   0.
   0.5         0.65714286  0.          0.39636364]
 [ 0.          0.5         0.57380952  0.          0.3630303   0.
   0.5         0.59047619  0.          0.36969697]
 [        nan  0.65        0.88571429  0.3         0.61888112  0.
   0.5         0.59047619  0.          0.36969697]
 [ 0.          0.5         0.73809524  0.          0.42348485  0.
   0.5         0.52380952  0.          0.3430303 ]
 [ 0.          0.5         0.65714286  0.          0.39636364  0.
   0.5         0.62380952  0.          0.3830303 ]
 [ 0.          0.5         0.77142857  0.          0.43439394  0.
   0.5         0.52380952  0.          0.3430303 ]
 [ 0.016       0.50833333  0.50714286  0.05773503  0.35714286  0.
   0.5         0.62380952  0.          0.3830303 ]
 [ 0.          0.5         0.60714286  0.          0.37636364  0.
   0.5         0.7547619   0.          0.42893939]
 [ 0.          0.5         0.52380952  0.          0.3430303   0.06969697
   0.53333333  0.57142857  0.11547005  0.4075    ]
 [ 0.          0.5         0.57380952  0.          0.3630303   0.04166667
   0.52083333  0.52142857  0.07071068  0.37083333]
 [ 0.          0.5         0.54047619  0.          0.34969697  0.03333333
   0.51666667  0.55714286  0.05773503  0.37886364]
 [ 0.          0.5         0.68809524  0.          0.40712121  0.02564103
   0.5125      0.50952381  0.19284076  0.40130952]
 [ 0.          0.5         0.65714286  0.          0.39636364  0.
   0.5         0.60714286  0.          0.37636364]
 [ 0.          0.5         0.60714286  0.          0.37636364  0.
   0.5         0.55714286  0.          0.35636364]
 [ 0.          0.5         0.62380952  0.          0.3830303   0.
   0.5         0.65714286  0.          0.39636364]]
SVM mean:
[0.00120794 0.50310734 0.61751412 0.0157735  0.38420438 0.04726352
 0.52375    0.6115873  0.0847334  0.41162217]
---------------------------
---------------------------
GBM performance:
[[ 6.25000000e-01  8.12500000e-01  8.16666667e-01  7.88322938e-01
   8.02738095e-01  1.29047619e-01  5.82500000e-01  7.71428571e-01
   2.85636331e-01  5.53484848e-01]
 [ 1.48268398e-01  5.25000000e-01  5.57142857e-01  3.67586859e-01
   4.91230159e-01  4.63095238e-01  7.75000000e-01  8.07142857e-01
   6.08288143e-01  7.64577922e-01]
 [ 4.17106227e-01  7.08333333e-01  7.21428571e-01  6.59153603e-01
   6.91626984e-01  1.70370370e-01  5.83333333e-01  5.78571429e-01
   5.44592420e-01  5.57698413e-01]
 [ 4.00000000e-01  7.20833333e-01  7.11904762e-01  6.99081710e-01
   7.07619048e-01  6.58385093e-02  5.40000000e-01  7.38095238e-01
   1.25482934e-01  4.79141414e-01]
 [ 5.79220779e-01  7.75000000e-01  8.04761905e-01  7.24721800e-01
   7.64960317e-01  4.57142857e-01  6.83333333e-01  7.00000000e-01
   6.24733949e-01  6.64404762e-01]
 [ 2.46153846e-01  6.41666667e-01  6.38095238e-01  5.42098017e-01
   6.07261905e-01  5.54413702e-01  7.79166667e-01  7.69047619e-01
   7.57072418e-01  7.63492063e-01]
 [ 2.79761905e-01  6.16666667e-01  6.90476190e-01  4.53578792e-01
   5.84419192e-01 -6.36363636e-02  4.83333333e-01  4.88095238e-01
   4.29122366e-01  4.67142857e-01]
 [ 7.23809524e-01  8.87500000e-01  9.16666667e-01  7.86602540e-01
   8.62857143e-01  7.18374741e-01  8.41666667e-01  8.54761905e-01
   8.10295483e-01  8.39325397e-01]
 [ 2.68809524e-01  6.33333333e-01  6.71428571e-01  4.97487373e-01
   6.02182540e-01 -4.50000000e-02  4.77500000e-01  6.21428571e-01
   1.31947922e-01  4.33611111e-01]
 [-2.03636364e-02  5.00000000e-01  4.90476190e-01  3.58067283e-01
   4.45833333e-01  1.16117216e-01  5.37500000e-01  5.76190476e-01
   3.43838356e-01  4.95158730e-01]
 [ 2.59409938e-01  6.29166667e-01  7.07142857e-01  4.94079956e-01
   5.91388889e-01  3.30173160e-01  6.62500000e-01  6.88095238e-01
   5.64477705e-01  6.40158730e-01]
 [ 7.14285714e-01  8.50000000e-01  8.83333333e-01  7.88561808e-01
   8.44126984e-01  3.98809524e-01  6.87500000e-01  7.21428571e-01
   5.90212594e-01  6.69841270e-01]
 [ 2.28030303e-01  6.20833333e-01  6.21428571e-01  5.27526616e-01
   5.86190476e-01  2.75000000e-01  6.37500000e-01  6.42857143e-01
   5.95814434e-01  6.27261905e-01]
 [ 1.80490196e-01  6.02500000e-01  7.19047619e-01  2.79787706e-01
   5.64422799e-01  4.36231884e-01  7.04166667e-01  7.04761905e-01
   6.81453371e-01  6.89761905e-01]
 [ 2.30252101e-01  6.00000000e-01  7.52380952e-01  2.82842712e-01
   5.57575758e-01  4.05952381e-01  7.04166667e-01  7.66666667e-01
   5.33598707e-01  6.66269841e-01]
 [ 5.35714286e-02  5.12500000e-01  5.90476190e-01  2.14443713e-01
   4.45212843e-01  2.69254658e-01  6.25000000e-01  6.95238095e-01
   4.84606521e-01  6.09126984e-01]
 [ 7.30333333e-01  8.66666667e-01  8.69047619e-01  8.55574811e-01
   8.59285714e-01  4.55952381e-01  7.20833333e-01  7.42857143e-01
   6.40603141e-01  7.00912698e-01]
 [            nan             nan             nan  4.00000000e-01
              nan  5.07792208e-01  7.45833333e-01  7.71428571e-01
   6.80871295e-01  7.35357143e-01]
 [ 2.08571429e-01  6.17500000e-01  7.38095238e-01  2.89442719e-01
   5.52777778e-01  2.58974359e-01  6.50000000e-01  6.42857143e-01
   5.76075950e-01  6.30833333e-01]
 [ 1.93744589e-01  6.16666667e-01  6.88095238e-01  3.82351506e-01
   5.74801587e-01  5.71428571e-04  5.33333333e-01  6.19047619e-01
   2.28023897e-01  4.87936508e-01]
 [ 3.71428571e-02  5.15000000e-01  7.71428571e-01  7.07106781e-02
   4.66717172e-01  5.05333333e-01  7.29166667e-01  7.21428571e-01
   7.11680895e-01  7.11428571e-01]
 [ 2.92307692e-01  6.50000000e-01  6.45238095e-01  5.58554345e-01
   6.11031746e-01  3.28223226e-01  6.62500000e-01  7.02380952e-01
   5.38134140e-01  6.30079365e-01]
 [ 7.93271222e-02  5.62500000e-01  6.02380952e-01  4.23997281e-01
   5.35793651e-01  3.44775910e-01  7.30000000e-01  8.35714286e-01
   5.68146578e-01  6.93841991e-01]
 [-2.02380952e-02  4.75000000e-01  4.88095238e-01  3.97481299e-01
   4.57142857e-01  4.64935065e-01  7.29166667e-01  7.54761905e-01
   6.55531400e-01  7.16349206e-01]
 [ 3.57142857e-01  6.54166667e-01  6.73809524e-01  4.79067634e-01
   5.99736652e-01  4.72000000e-01  7.37500000e-01  7.35714286e-01
   7.36272187e-01  7.29523810e-01]
 [ 1.19696970e-01  5.58333333e-01  5.88095238e-01  4.71042934e-01
   5.14642857e-01  3.32505176e-01  6.62500000e-01  6.73809524e-01
   6.46620500e-01  6.56468254e-01]
 [ 2.69565217e-01  6.32500000e-01  7.02380952e-01  5.05102371e-01
   6.18888889e-01  3.75362319e-01  7.20833333e-01  7.23809524e-01
   6.72542472e-01  7.12023810e-01]
 [ 1.29935065e-01  5.54166667e-01  6.71428571e-01  2.50920192e-01
   4.82777778e-01  4.87619048e-01  7.41666667e-01  7.71428571e-01
   6.24587734e-01  7.23769841e-01]
 [ 1.20346320e-01  5.79166667e-01  6.26190476e-01  3.20710678e-01
   5.19682540e-01  3.37267081e-01  6.83333333e-01  7.07142857e-01
   5.50621929e-01  6.72301587e-01]
 [ 7.47619048e-01  8.41666667e-01  8.71428571e-01  7.93781692e-01
   8.42579365e-01  3.64285714e-01  6.91666667e-01  7.42857143e-01
   5.62132034e-01  6.90238095e-01]
 [ 6.25000000e-01  8.12500000e-01  8.16666667e-01  7.88322938e-01
   8.02738095e-01  1.31552795e-01  5.82500000e-01  7.71428571e-01
   2.73653279e-01  5.53484848e-01]
 [ 1.23268398e-01  5.45833333e-01  5.73809524e-01  3.82569850e-01
   5.01825397e-01  4.63095238e-01  7.25000000e-01  7.73809524e-01
   6.49709499e-01  7.04577922e-01]
 [ 4.42952381e-01  7.08333333e-01  7.21428571e-01  6.43261741e-01
   6.91626984e-01  2.03703704e-01  6.16666667e-01  6.11904762e-01
   5.33997845e-01  5.87817460e-01]
 [ 4.32307692e-01  7.16666667e-01  7.07142857e-01  6.75167079e-01
   6.98690476e-01  6.58385093e-02  5.30000000e-01  7.23809524e-01
   1.25482934e-01  4.67474747e-01]
 [ 5.47077922e-01  7.87500000e-01  8.21428571e-01  7.15248366e-01
   7.80238095e-01  4.90476190e-01  7.25000000e-01  7.33333333e-01
   7.04376267e-01  7.20277778e-01]
 [ 2.79487179e-01  6.41666667e-01  6.38095238e-01  5.42098017e-01
   6.07261905e-01  5.21080369e-01  7.79166667e-01  7.69047619e-01
   7.57072418e-01  7.63492063e-01]
 [ 3.04761905e-01  6.16666667e-01  6.90476190e-01  4.44105357e-01
   5.85768398e-01 -5.79710145e-02  4.87500000e-01  4.90476190e-01
   4.29122366e-01  4.63809524e-01]
 [ 7.23809524e-01  8.62500000e-01  9.00000000e-01  7.57313218e-01
   8.40634921e-01  6.57142857e-01  8.04166667e-01  8.21428571e-01
   8.10295483e-01  7.84404762e-01]
 [ 2.68809524e-01  6.33333333e-01  6.71428571e-01  5.12132034e-01
   6.02182540e-01 -9.71008403e-02  4.55000000e-01  5.90476190e-01
   1.31947922e-01  4.21641414e-01]
 [-4.00000000e-03  5.12500000e-01  5.07142857e-01  3.73896407e-01
   4.64880952e-01  4.94505495e-02  5.54166667e-01  5.92857143e-01
   3.45201096e-01  5.00277778e-01]
 [ 3.59409938e-01  6.29166667e-01  7.07142857e-01  4.23369278e-01
   5.91388889e-01  3.51601732e-01  6.75000000e-01  7.04761905e-01
   5.64477705e-01  6.48492063e-01]
 [ 7.14285714e-01  8.50000000e-01  8.83333333e-01  7.88561808e-01
   8.44126984e-01  3.98809524e-01  7.04166667e-01  7.38095238e-01
   5.90212594e-01  6.83769841e-01]
 [ 2.28030303e-01  6.20833333e-01  6.21428571e-01  5.47052830e-01
   5.86190476e-01  2.41666667e-01  6.37500000e-01  6.42857143e-01
   6.10797425e-01  6.27261905e-01]
 [ 2.12633053e-01  5.77500000e-01  7.02380952e-01  3.59971818e-01
   5.26645022e-01  4.02898551e-01  7.00000000e-01  7.02380952e-01
   6.81453371e-01  6.74206349e-01]
 [ 2.30252101e-01  6.25000000e-01  7.69047619e-01  3.53553391e-01
   5.95353535e-01  4.05952381e-01  7.04166667e-01  7.66666667e-01
   5.33598707e-01  6.66269841e-01]
 [ 8.21428571e-02  5.12500000e-01  5.90476190e-01  2.14443713e-01
   4.45212843e-01  2.69254658e-01  6.00000000e-01  6.78571429e-01
   4.13895843e-01  5.71349206e-01]
 [ 7.30333333e-01  8.83333333e-01  8.85714286e-01  8.79489442e-01
   8.79642857e-01  4.55952381e-01  7.20833333e-01  7.42857143e-01
   6.40603141e-01  7.00912698e-01]
 [            nan  7.00000000e-01  9.00000000e-01  4.00000000e-01
   6.72727273e-01  5.07792208e-01  7.45833333e-01  7.71428571e-01
   6.80871295e-01  7.35357143e-01]
 [ 2.08571429e-01  6.17500000e-01  7.38095238e-01  2.89442719e-01
   5.52777778e-01  2.25641026e-01  6.50000000e-01  6.42857143e-01
   5.91058941e-01  6.30833333e-01]
 [ 2.36601732e-01  5.91666667e-01  6.71428571e-01  3.82351506e-01
   5.52579365e-01  3.39047619e-02  5.00000000e-01  5.85714286e-01
   2.28023897e-01  4.60555556e-01]
 [ 3.71428571e-02  5.15000000e-01  7.71428571e-01  7.07106781e-02
   4.66717172e-01  4.79487179e-01  7.45833333e-01  7.38095238e-01
   7.27572757e-01  7.29523810e-01]
 [ 2.92307692e-01  6.58333333e-01  6.57142857e-01  5.83909120e-01
   6.28809524e-01  3.28223226e-01  6.62500000e-01  7.02380952e-01
   5.38134140e-01  6.30079365e-01]
 [ 7.93271222e-02  5.37500000e-01  5.85714286e-01  3.62760038e-01
   5.06626984e-01  3.44775910e-01  6.80000000e-01  8.19047619e-01
   4.78703859e-01  6.56064214e-01]
 [-5.35714286e-02  4.91666667e-01  5.04761905e-01  3.97481299e-01
   4.75238095e-01  4.31601732e-01  7.29166667e-01  7.54761905e-01
   6.55531400e-01  7.16349206e-01]
 [ 3.15476190e-01  6.54166667e-01  6.73809524e-01  4.79067634e-01
   5.99736652e-01  4.72000000e-01  7.20833333e-01  7.19047619e-01
   7.40815410e-01  7.13333333e-01]
 [ 1.76839827e-01  5.75000000e-01  6.02380952e-01  4.71042934e-01
   5.34087302e-01  3.60173160e-01  6.62500000e-01  6.73809524e-01
   6.28290898e-01  6.56468254e-01]
 [ 1.98136646e-01  6.20000000e-01  6.85714286e-01  5.05102371e-01
   6.12222222e-01  3.75362319e-01  7.20833333e-01  7.23809524e-01
   6.96457103e-01  7.12023810e-01]
 [ 1.03030303e-01  5.54166667e-01  6.71428571e-01  2.15048245e-01
   4.92301587e-01  4.87619048e-01  7.04166667e-01  7.38095238e-01
   6.35824977e-01  6.87619048e-01]
 [ 1.63203463e-01  5.95833333e-01  6.42857143e-01  3.67851130e-01
   5.43253968e-01  3.67028986e-01  6.66666667e-01  6.90476190e-01
   5.60095363e-01  6.43134921e-01]
 [ 6.94047619e-01  8.66666667e-01  8.88095238e-01  7.93781692e-01
   8.71746032e-01  4.58857143e-01  6.91666667e-01  7.42857143e-01
   6.50796647e-01  6.90238095e-01]]
GBM mean:
[0.29915476 0.64868644 0.70217918 0.48969647 0.6159108  0.32904423
 0.66538889 0.70710317 0.55185154 0.64354371]
---------------------------
---------------------------
BDDAE performance:
[[-0.12593969  0.43571429  0.43846154  0.39890135  0.41944524 -0.01585422
   0.495       0.65384615  0.26543865  0.4734452 ]
 [ 0.10504887  0.55119048  0.56153846  0.52117792  0.54187351  0.35184778
   0.6825      0.69230769  0.64028442  0.66857475]
 [ 0.10871502  0.55357143  0.56153846  0.52411688  0.54331169  0.16260125
   0.58095238  0.58461538  0.56835687  0.57680445]
 [ 0.21373212  0.60952381  0.60769231  0.58556321  0.59621344  0.1237862
   0.55833333  0.63846154  0.48669044  0.55696011]
 [ 0.1318879   0.56875     0.56153846  0.55997887  0.55359016  0.42333838
   0.71309524  0.70769231  0.7006931   0.7040676 ]
 [ 0.45159014  0.72380952  0.73076923  0.70473121  0.71917275  0.1489852
   0.57619048  0.57692308  0.55572854  0.56626249]
 [ 0.01860201  0.5075      0.56923077  0.35902682  0.48582473  0.05947065
   0.5297619   0.53076923  0.4960809   0.51274745]
 [ 0.35217064  0.67083333  0.74615385  0.59215048  0.66652882  0.16530957
   0.58625     0.59230769  0.57259576  0.57562871]
 [ 0.13332526  0.54861111  0.65384615  0.44568998  0.54955211  0.24160691
   0.60277778  0.73846154  0.40218388  0.58695603]
 [ 0.11339659  0.5547619   0.56153846  0.52383348  0.54241123  0.18765856
   0.59166667  0.6         0.56051397  0.58106835]
 [ 0.05666019  0.53333333  0.62307692  0.3740374   0.50726599  0.26453706
   0.63125     0.66153846  0.57097586  0.6198637 ]
 [ 0.1422814   0.5675      0.56923077  0.55625164  0.55797232  0.28695376
   0.65        0.66153846  0.63174061  0.63958683]
 [ 0.22489894  0.61190476  0.61538462  0.58382311  0.59998818  0.17162697
   0.58690476  0.58461538  0.55245809  0.56818438]
 [-0.08701213  0.4625      0.55384615  0.26739897  0.44134785  0.17310688
   0.58571429  0.59230769  0.55443376  0.57337298]
 [ 0.17106005  0.59166667  0.64615385  0.52516742  0.57633729  0.17675726
   0.5975      0.59230769  0.54101241  0.56851379]
 [-0.12603868  0.43        0.44615385  0.35249067  0.40347758  0.09820587
   0.54305556  0.64615385  0.39039269  0.53431041]
 [ 0.47588184  0.73809524  0.73846154  0.73102218  0.73500541  0.23946724
   0.61125     0.66923077  0.48800846  0.59359805]
 [ 0.08958647  0.6         0.85384615  0.26894779  0.53185197 -0.13054417
   0.43625     0.45384615  0.34710397  0.41367956]
 [ 0.12365653  0.56333333  0.66923077  0.48805178  0.553349    0.06536058
   0.53214286  0.52307692  0.46520076  0.502951  ]
 [ 0.20379319  0.59722222  0.65384615  0.56940056  0.59668233 -0.1011954
   0.45375     0.50769231  0.31537887  0.43297555]
 [ 0.01516867  0.505       0.66923077  0.30585002  0.49288416 -0.00840677
   0.4952381   0.5         0.4722975   0.48644616]
 [ 0.14693574  0.57261905  0.57692308  0.5429476   0.56047391  0.15886954
   0.57375     0.62307692  0.51716328  0.56545764]
 [ 0.1020739   0.555       0.55384615  0.52734808  0.53420253  0.46226505
   0.71333333  0.84615385  0.58629206  0.71788131]
 [ 0.00221993  0.50119048  0.50769231  0.48060862  0.49423802  0.24895006
   0.62261905  0.63076923  0.57821378  0.60555577]
 [-0.11564601  0.44404762  0.44615385  0.39282876  0.42847114 -0.06873272
   0.46547619  0.46923077  0.44794182  0.4584999 ]
 [ 0.12249452  0.56071429  0.56923077  0.5288295   0.54873626  0.05387022
   0.52619048  0.53846154  0.48589128  0.51289638]
 [ 0.40516529  0.70555556  0.74615385  0.67425863  0.69449254  0.43732452
   0.72142857  0.71538462  0.69799613  0.7064806 ]
 [ 0.09776449  0.55        0.56923077  0.50967874  0.5322936   0.48597513
   0.73        0.76923077  0.70423311  0.73754761]
 [ 0.01503658  0.5025      0.50769231  0.47046961  0.48376255  0.30611764
   0.65        0.66153846  0.62516529  0.64402743]
 [ 0.19305028  0.5975      0.61538462  0.57062586  0.58679181  0.00397761
   0.50277778  0.56153846  0.4201955   0.49248774]
 [-0.01979561  0.48928571  0.49230769  0.47852464  0.48565351  0.04877569
   0.52666667  0.68461538  0.30707393  0.51444748]
 [ 0.071945    0.53571429  0.54615385  0.50686435  0.52682168  0.4077803
   0.70875     0.71538462  0.7004888   0.70090952]
 [ 0.03185518  0.51547619  0.52307692  0.48382182  0.50421946  0.22466469
   0.61309524  0.61538462  0.59044609  0.60266733]
 [ 0.03480176  0.51904762  0.52307692  0.48814538  0.506064    0.00221238
   0.50138889  0.60769231  0.36239613  0.48677982]
 [ 0.09974329  0.5525      0.54615385  0.53242385  0.53294508  0.40728841
   0.70595238  0.7         0.69219857  0.69558025]
 [ 0.34652668  0.6702381   0.67692308  0.64309001  0.66154121  0.22638088
   0.61547619  0.60769231  0.58716652  0.59733433]
 [ 0.01967617  0.51125     0.56923077  0.33753985  0.48302874  0.10601657
   0.55357143  0.55384615  0.47944968  0.52405137]
 [ 0.30944466  0.65555556  0.71538462  0.58493265  0.64126433  0.19020719
   0.6         0.6         0.58731701  0.58704359]
 [ 0.05754467  0.525       0.63076923  0.38659665  0.5123315   0.28938858
   0.62777778  0.75384615  0.43069658  0.60825985]
 [ 0.2029447   0.6         0.60769231  0.56737904  0.58766897  0.14163012
   0.56785714  0.57692308  0.54603487  0.56283621]
 [ 0.05407198  0.52638889  0.62307692  0.36625607  0.50507226  0.21286827
   0.605       0.63846154  0.5571958   0.59156488]
 [ 0.1998001   0.60125     0.61538462  0.59230571  0.59748939  0.26073916
   0.63375     0.64615385  0.62138808  0.62692864]
 [ 0.27163217  0.63571429  0.63846154  0.61274333  0.62594264  0.16492334
   0.58333333  0.57692308  0.55937131  0.56829254]
 [-0.07790248  0.46111111  0.56153846  0.25520172  0.43716047  0.12940658
   0.56428571  0.56923077  0.53283743  0.55081304]
 [ 0.25329851  0.63333333  0.68461538  0.56836481  0.61844998  0.15511986
   0.5825      0.59230769  0.55374921  0.56621065]
 [-0.07581596  0.45625     0.46923077  0.42664525  0.44319421  0.08182074
   0.53055556  0.63846154  0.36227054  0.51132952]
 [ 0.4320315   0.71785714  0.71538462  0.70303123  0.70894491  0.11927966
   0.55875     0.6         0.45811578  0.54098111]
 [ 0.44581781  0.8         0.88461538  0.66980232  0.71696311 -0.20080747
   0.39875     0.40769231  0.2877906   0.36953116]
 [ 0.11172505  0.55333333  0.65384615  0.4858444   0.547588    0.11203426
   0.55714286  0.54615385  0.51155373  0.52871104]
 [ 0.15231164  0.56944444  0.65384615  0.48565733  0.56423903 -0.13244531
   0.4425      0.50769231  0.20604577  0.40418903]
 [ 0.11371209  0.555       0.69230769  0.39390822  0.5405235   0.08753698
   0.54285714  0.54615385  0.5293627   0.53744724]
 [ 0.11472367  0.55714286  0.56153846  0.53686208  0.5490557   0.12363041
   0.55875     0.6         0.47157207  0.54018066]
 [ 0.10491022  0.55625     0.54615385  0.54062663  0.53629048  0.42454834
   0.69666667  0.83846154  0.53274702  0.69762157]
 [-0.02119066  0.48928571  0.49230769  0.46453154  0.47808733  0.30382624
   0.65        0.66153846  0.6197898   0.64072893]
 [-0.08756342  0.45833333  0.46153846  0.42484942  0.44426871  0.00316421
   0.50119048  0.5         0.4918328   0.49564269]
 [ 0.16275888  0.5797619   0.58461538  0.55867028  0.57212465  0.05686452
   0.52857143  0.53846154  0.49202985  0.51584678]
 [ 0.43836339  0.72222222  0.76923077  0.66789063  0.71532434  0.37606907
   0.69047619  0.68461538  0.64452452  0.66462346]
 [ 0.05948938  0.53611111  0.56923077  0.47312178  0.51214638  0.53897387
   0.76        0.79230769  0.73569529  0.76402265]
 [-0.04811794  0.47625     0.48461538  0.45042561  0.46223824  0.33712802
   0.66547619  0.67692308  0.64329296  0.66080108]
 [ 0.16953254  0.5825      0.59230769  0.5025957   0.55796993 -0.06969372
   0.46111111  0.52307692  0.39127685  0.45177022]]
BDDAE mean:
[0.12816392 0.56592593 0.60346154 0.50206432 0.55086933 0.17170947
 0.58462269 0.61705128 0.51877287 0.57139964]
---------------------------
---------------------------
DUMMY performance:
[[0.         0.5        0.54047619 0.         0.34969697 0.
  0.5        0.77142857 0.         0.43439394]
 [0.         0.5        0.57380952 0.         0.3630303  0.
  0.5        0.62380952 0.         0.3830303 ]
 [0.         0.5        0.57380952 0.         0.3630303  0.
  0.5        0.49285714 0.         0.33      ]
 [0.         0.5        0.52380952 0.         0.3430303  0.
  0.5        0.72142857 0.         0.4180303 ]
 [0.         0.5        0.62380952 0.         0.3830303  0.
  0.5        0.52380952 0.         0.3430303 ]
 [0.         0.5        0.49285714 0.         0.33       0.
  0.5        0.52380952 0.         0.3430303 ]
 [0.         0.5        0.64047619 0.         0.38969697 0.
  0.5        0.49285714 0.         0.33      ]
 [0.         0.5        0.68809524 0.         0.40712121 0.
  0.5        0.60714286 0.         0.37636364]
 [0.         0.5        0.65714286 0.         0.39636364 0.
  0.5        0.68809524 0.         0.40712121]
 [0.         0.5        0.52380952 0.         0.3430303  0.
  0.5        0.55714286 0.         0.35636364]
 [0.         0.5        0.65714286 0.         0.39636364 0.
  0.5        0.59047619 0.         0.36969697]
 [0.         0.5        0.62380952 0.         0.3830303  0.
  0.5        0.62380952 0.         0.3830303 ]
 [0.         0.5        0.57380952 0.         0.3630303  0.
  0.5        0.52380952 0.         0.3430303 ]
 [0.         0.5        0.68809524 0.         0.40712121 0.
  0.5        0.49285714 0.         0.33      ]
 [0.         0.5        0.68809524 0.         0.40712121 0.
  0.5        0.64047619 0.         0.38969697]
 [0.         0.5        0.62380952 0.         0.3830303  0.
  0.5        0.65714286 0.         0.39636364]
 [0.         0.5        0.57380952 0.         0.3630303  0.
  0.5        0.59047619 0.         0.36969697]
 [       nan        nan        nan 0.3               nan 0.
  0.5        0.59047619 0.         0.36969697]
 [0.         0.5        0.73809524 0.         0.42348485 0.
  0.5        0.52380952 0.         0.3430303 ]
 [0.         0.5        0.65714286 0.         0.39636364 0.
  0.5        0.62380952 0.         0.3830303 ]
 [0.         0.5        0.77142857 0.         0.43439394 0.
  0.5        0.52380952 0.         0.3430303 ]
 [0.         0.5        0.49285714 0.         0.33       0.
  0.5        0.62380952 0.         0.3830303 ]
 [0.         0.5        0.60714286 0.         0.37636364 0.
  0.5        0.7547619  0.         0.42893939]
 [0.         0.5        0.52380952 0.         0.3430303  0.
  0.5        0.54047619 0.         0.34969697]
 [0.         0.5        0.57380952 0.         0.3630303  0.
  0.5        0.50714286 0.         0.33636364]
 [0.         0.5        0.54047619 0.         0.34969697 0.
  0.5        0.54047619 0.         0.34969697]
 [0.         0.5        0.68809524 0.         0.40712121 0.
  0.5        0.49285714 0.         0.33      ]
 [0.         0.5        0.65714286 0.         0.39636364 0.
  0.5        0.60714286 0.         0.37636364]
 [0.         0.5        0.60714286 0.         0.37636364 0.
  0.5        0.55714286 0.         0.35636364]
 [0.         0.5        0.62380952 0.         0.3830303  0.
  0.5        0.65714286 0.         0.39636364]
 [0.         0.5        0.54047619 0.         0.34969697 0.
  0.5        0.77142857 0.         0.43439394]
 [0.         0.5        0.57380952 0.         0.3630303  0.
  0.5        0.62380952 0.         0.3830303 ]
 [0.         0.5        0.57380952 0.         0.3630303  0.
  0.5        0.49285714 0.         0.33      ]
 [0.         0.5        0.52380952 0.         0.3430303  0.
  0.5        0.72142857 0.         0.4180303 ]
 [0.         0.5        0.62380952 0.         0.3830303  0.
  0.5        0.52380952 0.         0.3430303 ]
 [0.         0.5        0.49285714 0.         0.33       0.
  0.5        0.52380952 0.         0.3430303 ]
 [0.         0.5        0.64047619 0.         0.38969697 0.
  0.5        0.49285714 0.         0.33      ]
 [0.         0.5        0.68809524 0.         0.40712121 0.
  0.5        0.60714286 0.         0.37636364]
 [0.         0.5        0.65714286 0.         0.39636364 0.
  0.5        0.68809524 0.         0.40712121]
 [0.         0.5        0.52380952 0.         0.3430303  0.
  0.5        0.55714286 0.         0.35636364]
 [0.         0.5        0.65714286 0.         0.39636364 0.
  0.5        0.59047619 0.         0.36969697]
 [0.         0.5        0.62380952 0.         0.3830303  0.
  0.5        0.62380952 0.         0.3830303 ]
 [0.         0.5        0.57380952 0.         0.3630303  0.
  0.5        0.52380952 0.         0.3430303 ]
 [0.         0.5        0.68809524 0.         0.40712121 0.
  0.5        0.49285714 0.         0.33      ]
 [0.         0.5        0.68809524 0.         0.40712121 0.
  0.5        0.64047619 0.         0.38969697]
 [0.         0.5        0.62380952 0.         0.3830303  0.
  0.5        0.65714286 0.         0.39636364]
 [0.         0.5        0.57380952 0.         0.3630303  0.
  0.5        0.59047619 0.         0.36969697]
 [       nan 0.65       0.88571429 0.3        0.61888112 0.
  0.5        0.59047619 0.         0.36969697]
 [0.         0.5        0.73809524 0.         0.42348485 0.
  0.5        0.52380952 0.         0.3430303 ]
 [0.         0.5        0.65714286 0.         0.39636364 0.
  0.5        0.62380952 0.         0.3830303 ]
 [0.         0.5        0.77142857 0.         0.43439394 0.
  0.5        0.52380952 0.         0.3430303 ]
 [0.         0.5        0.49285714 0.         0.33       0.
  0.5        0.62380952 0.         0.3830303 ]
 [0.         0.5        0.60714286 0.         0.37636364 0.
  0.5        0.7547619  0.         0.42893939]
 [0.         0.5        0.52380952 0.         0.3430303  0.
  0.5        0.54047619 0.         0.34969697]
 [0.         0.5        0.57380952 0.         0.3630303  0.
  0.5        0.50714286 0.         0.33636364]
 [0.         0.5        0.54047619 0.         0.34969697 0.
  0.5        0.54047619 0.         0.34969697]
 [0.         0.5        0.68809524 0.         0.40712121 0.
  0.5        0.49285714 0.         0.33      ]
 [0.         0.5        0.65714286 0.         0.39636364 0.
  0.5        0.60714286 0.         0.37636364]
 [0.         0.5        0.60714286 0.         0.37636364 0.
  0.5        0.55714286 0.         0.35636364]
 [0.         0.5        0.62380952 0.         0.3830303  0.
  0.5        0.65714286 0.         0.39636364]]
DUMMY mean:
[0.         0.50254237 0.61662631 0.01       0.38167595 0.
 0.5        0.58880952 0.         0.36828283]
---------------------------
Current folder: C:\Users\Javier\Dropbox\c_sldl_1_2_18
-------------------------------------
----- RESULTS from .csv files ------
-------------------------------------
---------------------------
ALG Means: 
-rows: alg : KNN = 0; DT = 1; RF = 2; SVM = 3; GBM = 4; BDDAE = 5; DUMMY = 5
columns:
'val_cohen','val_uar', 'val_acc', 'val_gm',  'val_f1',  'aro_cohen','aro_uar', 'aro_acc', 'aro_gm',  'aro_f1'
-------------------------------------------------------------
  v_c   v_u   v_a   v_g   v_f1  a_c   a_u   a_a   a_g   a_f1
[[0.312 0.656 0.696 0.54  0.634 0.347 0.675 0.706 0.569 0.651]
 [0.297 0.654 0.676 0.568 0.629 0.324 0.663 0.686 0.589 0.642]
 [0.356 0.685 0.715 0.601 0.665 0.356 0.674 0.699 0.594 0.652]
 [0.001 0.503 0.618 0.016 0.384 0.047 0.524 0.612 0.085 0.412]
 [0.299 0.649 0.702 0.49  0.616 0.329 0.665 0.707 0.552 0.644]
 [0.128 0.566 0.603 0.502 0.551 0.172 0.585 0.617 0.519 0.571]
 [0.    0.503 0.617 0.01  0.382 0.    0.5   0.589 0.    0.368]]
-------------------------------------------------------------
Standard Deviation of each metric:
[[  nan   nan   nan 0.181   nan 0.173 0.088 0.075 0.149 0.093]
 [  nan   nan   nan 0.143   nan 0.175 0.091 0.088 0.12  0.093]
 [  nan   nan   nan 0.152   nan 0.161 0.08  0.079 0.121 0.084]
 [  nan   nan   nan 0.056   nan 0.131 0.066 0.08  0.194 0.096]
 [  nan   nan   nan 0.195   nan 0.182 0.087 0.076 0.173 0.096]
 [0.15  0.079 0.094 0.109 0.079 0.163 0.08  0.088 0.116 0.085]
 [  nan   nan   nan 0.054   nan 0.    0.    0.077 0.    0.03 ]]
-------------------------------------------------------------
std_dev/mean [percentage]:
[[ nan  nan  nan  34.  nan  50.  13.  11.  26.  14.]
 [ nan  nan  nan  25.  nan  54.  14.  13.  20.  14.]
 [ nan  nan  nan  25.  nan  45.  12.  11.  20.  13.]
 [ nan  nan  nan 355.  nan 277.  13.  13. 229.  23.]
 [ nan  nan  nan  40.  nan  55.  13.  11.  31.  15.]
 [117.  14.  16.  22.  14.  95.  14.  14.  22.  15.]
 [  0.  nan  nan 540.  nan   0.   0.  13.   0.   8.]]
-------------------------------------
Current folder: C:\Users\Javier\Dropbox\c_sldl_1_2_18
-------------------------------------
----- RESULTS ------
-------------------------------------
Window size (sec):  24.992
step (sec):  18.752
overlap:  True
perc. of overlap:  24.96798975672215
overlap duration (sec):  6.24
Number of windows / instances:  61
Elapsed time: 901.7482220331827 minutes
Elapsed time: 15.02913703388638 hours
