2024-03-17 01:12:30.180221: I tensorflow/core/util/port.cc:113] oneDNN custom operations are on. You may see slightly different numerical results due to floating-point round-off errors from different computation orders. To turn them off, set the environment variable `TF_ENABLE_ONEDNN_OPTS=0`.
2024-03-17 01:12:33.760431: I tensorflow/core/util/port.cc:113] oneDNN custom operations are on. You may see slightly different numerical results due to floating-point round-off errors from different computation orders. To turn them off, set the environment variable `TF_ENABLE_ONEDNN_OPTS=0`.
2024-03-17 01:12:42.758625: I tensorflow/core/platform/cpu_feature_guard.cc:210] This TensorFlow binary is optimized to use available CPU instructions in performance-critical operations.
To enable the following instructions: AVX2 FMA, in other operations, rebuild TensorFlow with the appropriate compiler flags.
    
    
-------------------------------
participant:  1
-------------------------------
    
    
participant:  1
corriendo en PC gamer:
Window size (sec):  16.0
step (sec):  12.0
overlap:  True
perc. of overlap:  25.0
overlap duration (sec):  4.0
Nearest multiple of 16 to 16000 is: 16000
Nearest multiple of 16 to 12000 is: 12000
['gsr_chunks', 'ppg_chunks', 'val_chunks', 'aro_chunks', 'time_chunks', 'tag_chunks', 'video']
C:\Users\Javier\Dropbox\c_sldl_1_2_15\functions.py:880: FutureWarning: ChainedAssignmentError: behaviour will change in pandas 3.0!

[1m1/1[0m [32m━━━━━━━━━━━━━━━━━━━━[0m[37m[0m [1m0s[0m 109ms/step
predicted [0.34303397 0.5181995  0.8142257  0.72530234 0.68373036 0.77772737
 0.52471364 0.35286403 0.8069307  0.6839936  0.7644085  0.6368358
 0.5530036  0.8934431  0.7782787  0.23323187 0.62385917 0.18301417
 0.6942407  0.8619679 ]
predicted [0 1 1 1 1 1 1 0 1 1 1 1 1 1 1 0 1 0 1 1]
expected [ True  True False  True  True False  True False False  True  True  True
 False  True  True False False  True  True False]
accuracy: 0.6
confusion matrix: 
[[ 2  6]
 [ 2 10]]
              precision    recall  f1-score   support

       False       0.50      0.25      0.33         8
        True       0.62      0.83      0.71        12

    accuracy                           0.60        20
   macro avg       0.56      0.54      0.52        20
weighted avg       0.57      0.60      0.56        20

macro avg f1-score: 0.5238095238095238
macro avg (UAR): 0.5416666666666667
Sensitivity:  0.25
Specificity:  0.8333333333333334
g-mean:  0.45643546458763845
-------- Model Performance ----------: 
accuracy:  [0.7  0.4  0.7  0.65 0.75 0.45 0.5  0.6  0.6  0.6 ]
gmean:  [0.64549722 0.39528471 0.64549722 0.64549722 0.75       0.38188131
 0.40824829 0.53033009 0.57735027 0.45643546]
f1_score:  [0.67032967 0.39393939 0.67032967 0.64194373 0.74424552 0.41333333
 0.45054945 0.56043956 0.58333333 0.52380952]
UAR:  [0.66666667 0.39583333 0.66666667 0.64583333 0.75       0.41666667
 0.45833333 0.5625     0.58333333 0.54166667]
Cohen Kappa score:  [ 0.34782609 -0.2         0.34782609  0.28571429  0.48979592 -0.17021277
 -0.08695652  0.13043478  0.16666667  0.09090909]
arousal and valece = ok
------------- Evaluating model --------------
-------------------------------------
-------------------------------------
participant:  30
-------------------------------------
----- RESULTS ------
-------------------------------------
Window size (sec):  16.0
step (sec):  12.0
overlap:  True
perc. of overlap:  25.0
overlap duration (sec):  4.0
Number of windows / instances:  100
-rows: alg : KNN = 0; DT = 1; RF = 2; SVM = 3; GBM = 4; BDDAE = 5; DUMMY = 5
columns:
'val_cohen','val_uar', 'val_acc', 'val_gm',  'val_f1',  'aro_cohen','aro_uar', 'aro_acc', 'aro_gm',  'aro_f1'
-------------------------------------------------------------
  v_c   v_u   v_a   v_g   v_f1  a_c   a_u   a_a   a_g   a_f1
[[ 0.746  0.882  0.88   0.879  0.872  0.458  0.729  0.76   0.711  0.725]
 [ 0.567  0.76   0.78   0.772  0.759  0.52   0.779  0.8    0.737  0.764]
 [ 0.604  0.769  0.78   0.766  0.759  0.523  0.781  0.82   0.737  0.774]
 [ 0.153  0.567  0.67   0.228  0.494  0.     0.5    0.66   0.     0.397]
 [ 0.396  0.694  0.72   0.607  0.671  0.432  0.701  0.78   0.564  0.677]
 [ 0.14   0.569  0.595  0.544  0.565 -0.056  0.473  0.585  0.19   0.422]
 [ 0.     0.5    0.62   0.     0.382  0.     0.5    0.66   0.     0.397]]
participant performance loaded
    
    
-------------------------------
LAST participant's saved data: 
30
-------------------------------
    
    
---------------------------
KNN performance:
[[ 0.52088629  0.75666667  0.77        0.74591276  0.75799284  0.19578199
   0.60029762  0.73        0.44014186  0.58301704]
 [ 0.45979933  0.7325      0.73        0.70783824  0.71874043  0.39502845
   0.68869048  0.74        0.60869546  0.68335997]
 [ 0.44629776  0.7175      0.74        0.67543045  0.70787546  0.4
   0.70166667  0.7         0.69473313  0.69734848]
 [ 0.42599473  0.71        0.72        0.69816964  0.70981435  0.11385367
   0.55892857  0.67        0.36786274  0.53382618]
 [ 0.49595627  0.73869048  0.78        0.67498467  0.73660256  0.56
   0.78166667  0.78        0.75877388  0.76970418]
 [ 0.44        0.72083333  0.72        0.69630022  0.70917971  0.51785953
   0.75916667  0.76        0.74321125  0.75179321]
 [ 0.12436194  0.55916667  0.59        0.51859623  0.55115967  0.26
   0.63        0.63        0.60074509  0.6159965 ]
 [ 0.83496785  0.91607143  0.93        0.91202     0.9170696   0.71113966
   0.85416667  0.86        0.84850219  0.85345904]
 [ 0.29032684  0.64285714  0.74        0.48741424  0.62830559  0.21548757
   0.59345238  0.68        0.50886957  0.59474817]
 [ 0.36        0.68        0.68        0.66471112  0.67293373  0.39974359
   0.70166667  0.7         0.67986315  0.68929321]
 [ 0.18077075  0.58869048  0.61        0.54308008  0.58257715  0.41658789
   0.70535714  0.73        0.63694212  0.6810348 ]
 [ 0.61493774  0.79583333  0.83        0.75929187  0.79672106  0.58683005
   0.7875      0.81        0.76680932  0.78852536]
 [ 0.41270531  0.70833333  0.71        0.69945324  0.70259685  0.10035465
   0.54916667  0.56        0.48779985  0.52964979]
 [ 0.04889349  0.52797619  0.56        0.42854103  0.49995144  0.44568511
   0.71666667  0.73        0.69285398  0.71381646]
 [ 0.16973818  0.58630952  0.66        0.49068184  0.5797891   0.04568071
   0.51488095  0.57        0.43412274  0.50346681]
 [ 0.22358189  0.60583333  0.64        0.54961457  0.59300228  0.48021412
   0.73928571  0.77        0.70629319  0.72990704]
 [ 0.30120351  0.65333333  0.66        0.62694665  0.63996143  0.24388763
   0.6125      0.65        0.56820585  0.60967671]
 [-0.03076923  0.48263889  0.83        0.          0.45252838  0.41461184
   0.70916667  0.72        0.6783347   0.6968673 ]
 [ 0.3078999   0.64047619  0.72        0.55311721  0.63863095  0.34956522
   0.675       0.68        0.65710781  0.6685484 ]
 [ 0.33518502  0.65714286  0.71        0.62894914  0.66104257  0.24059842
   0.61428571  0.68        0.51989385  0.60149725]
 [ 0.12430584  0.55416667  0.76        0.25049119  0.52672736  0.01478261
   0.50666667  0.51        0.4827683   0.49681013]
 [ 0.28444444  0.645       0.64        0.60738669  0.62409979  0.26696068
   0.63333333  0.65        0.60856842  0.62070291]
 [ 0.22718427  0.615       0.63        0.5532757   0.59717643  0.35064726
   0.66309524  0.77        0.54917275  0.66305672]
 [ 0.0546843   0.53        0.54        0.48270994  0.51814658  0.45623283
   0.72333333  0.74        0.67963545  0.7106044 ]
 [ 0.39668737  0.70166667  0.7         0.6724804   0.68433122  0.57608392
   0.78833333  0.79        0.7670836   0.77991536]
 [ 0.34387352  0.66666667  0.68        0.63920388  0.66234349  0.4419288
   0.72        0.72        0.70125396  0.70895577]
 [ 0.52013435  0.75        0.8         0.72130266  0.75395604  0.5
   0.75        0.75        0.68633236  0.72819458]
 [ 0.14544004  0.57619048  0.61        0.51443983  0.56279304  0.43800185
   0.7125      0.74        0.6769705   0.70863414]
 [-0.01745718  0.49404762  0.55        0.32691657  0.46785714  0.3276614
   0.6625      0.67        0.63355569  0.65153596]
 [ 0.74564182  0.88154762  0.88        0.87920701  0.87239843  0.45756532
   0.72916667  0.76        0.71141506  0.72534799]]
KNN mean:
[0.32625588 0.6611713  0.704      0.59028224 0.65087682 0.36409249
 0.67941468 0.70833333 0.62988393 0.66964313]
---------------------------
---------------------------
DT performance:
[[0.61234924 0.82833333 0.83       0.79475976 0.82433095 0.23089789
  0.6514881  0.73       0.50283657 0.60633385]
 [0.54103865 0.79       0.79       0.76230472 0.78570291 0.49346791
  0.74583333 0.76       0.73255619 0.74479826]
 [0.3626614  0.6825     0.7        0.6516579  0.68172966 0.28444444
  0.61083333 0.61       0.58972401 0.59698968]
 [0.40461538 0.6275     0.62       0.61013805 0.60378843 0.13619967
  0.5514881  0.67       0.51505199 0.55106685]
 [0.41245781 0.70952381 0.72       0.62485074 0.69881674 0.44335404
  0.73166667 0.73       0.70544345 0.72268953]
 [0.63826087 0.8075     0.81       0.77878547 0.80200355 0.47747253
  0.7575     0.75       0.65861274 0.74268953]
 [0.10565645 0.60333333 0.62       0.5930045  0.59820208 0.26
  0.66       0.66       0.64965571 0.64668387]
 [0.84092024 0.88571429 0.91       0.91548404 0.89389194 0.42468944
  0.73869048 0.75       0.69346847 0.73457875]
 [0.45172894 0.66666667 0.72       0.7128861  0.65833791 0.43870619
  0.72380952 0.75       0.64357858 0.70577839]
 [0.3        0.67       0.67       0.69550629 0.66540404 0.395
  0.64166667 0.64       0.65241737 0.62800117]
 [0.18454985 0.57619048 0.6        0.5816622  0.56474775 0.4739441
  0.75416667 0.77       0.69314795 0.74557692]
 [0.56778707 0.83333333 0.84       0.79934536 0.83331252 0.47089558
  0.73869048 0.74       0.68090955 0.72334166]
 [0.36311594 0.7025     0.71       0.66735077 0.69527251 0.06785953
  0.5375     0.55       0.36728833 0.50071984]
 [0.01003053 0.50059524 0.56       0.39015196 0.48983322 0.09740741
  0.58666667 0.6        0.50879586 0.58166306]
 [0.08091971 0.51488095 0.59       0.38134293 0.51233059 0.17203203
  0.56488095 0.6        0.61123868 0.56328449]
 [0.44357621 0.65083333 0.67       0.61521721 0.63455655 0.53919694
  0.70059524 0.7        0.70840602 0.68092491]
 [0.59606466 0.7925     0.79       0.77142691 0.78662893 0.55777778
  0.78833333 0.79       0.71563409 0.7645202 ]
 [0.23252262 0.64583333 0.85       0.23685446 0.61512083 0.51265886
  0.73166667 0.73       0.72195845 0.7159879 ]
 [0.58693473 0.7827381  0.8        0.67760634 0.76162088 0.40811594
  0.725      0.73       0.64562489 0.71919136]
 [0.40580398 0.7202381  0.73       0.68182181 0.70121198 0.16865431
  0.62916667 0.65       0.58093196 0.62232462]
 [0.10411941 0.5235119  0.7        0.12295858 0.51081565 0.04
  0.47       0.47       0.48041115 0.46098485]
 [0.08       0.57083333 0.57       0.50218759 0.55395022 0.35316256
  0.70833333 0.73       0.71124483 0.70175658]
 [0.25580586 0.61583333 0.61       0.62457537 0.58362388 0.37256431
  0.5922619  0.68       0.57376544 0.56493078]
 [0.41813665 0.68416667 0.69       0.69997998 0.67340382 0.36666667
  0.71583333 0.72       0.67384042 0.71038323]
 [0.17       0.59416667 0.6        0.58154254 0.58677156 0.57632107
  0.76       0.76       0.73449897 0.75199523]
 [0.20963768 0.6225     0.63       0.62392463 0.61537074 0.52330113
  0.76833333 0.76       0.75516679 0.75225108]
 [0.41847382 0.73690476 0.77       0.64047166 0.73403388 0.38
  0.72       0.72       0.68867006 0.71734848]
 [0.20671303 0.65       0.68       0.50379802 0.61940143 0.46938127
  0.76       0.77       0.71261021 0.7543845 ]
 [0.160623   0.61071429 0.65       0.62837104 0.60441225 0.14355977
  0.61833333 0.62       0.55114554 0.60005245]
 [0.56709874 0.75952381 0.78       0.77242609 0.75897269 0.51969848
  0.77857143 0.8        0.73736913 0.76369963]]
DT mean:
[0.35772008 0.67862897 0.707      0.6214131  0.66825334 0.35991433
 0.68204365 0.698      0.63986678 0.66916439]
---------------------------
---------------------------
RF performance:
[[ 0.66780632  0.8225      0.83        0.71995582  0.82392691  0.23974648
   0.64761905  0.74        0.45978167  0.62030794]
 [ 0.45441725  0.635       0.63        0.74928419  0.61032884  0.37034466
   0.78452381  0.79        0.73211721  0.7782018 ]
 [ 0.47601449  0.78833333  0.8         0.67313467  0.78422966  0.4
   0.70333333  0.7         0.65569462  0.69689394]
 [ 0.32623188  0.6775      0.68        0.68355344  0.66691031  0.0395286
   0.5327381   0.62        0.37486049  0.50076217]
 [ 0.42194775  0.76785714  0.78        0.68622906  0.75785548  0.56153846
   0.755       0.75        0.73701297  0.74535354]
 [ 0.53826087  0.74916667  0.75        0.76221999  0.74142691  0.46128205
   0.77416667  0.77        0.82008468  0.76681818]
 [ 0.21708263  0.61333333  0.64        0.61320847  0.61098707  0.34
   0.68        0.68        0.61022648  0.67040848]
 [ 0.7925557   0.89107143  0.91        0.91311725  0.89389194  0.5091481
   0.74702381  0.77        0.78761159  0.74791181]
 [ 0.26669679  0.64761905  0.72        0.58283474  0.65339744  0.23983937
   0.61011905  0.69        0.54981072  0.60184524]
 [ 0.18        0.67        0.67        0.66782088  0.66348485  0.31280632
   0.70833333  0.71        0.62108788  0.69930153]
 [ 0.13129943  0.65416667  0.69        0.54572279  0.64758505  0.63769131
   0.79285714  0.81        0.69539459  0.78700466]
 [ 0.6842556   0.81488095  0.83        0.81611279  0.81353452  0.60459958
   0.70833333  0.74        0.67200292  0.704913  ]
 [ 0.4221876   0.66083333  0.67        0.63338329  0.65927128  0.01745718
   0.5625      0.58        0.49446813  0.54908286]
 [-0.0417068   0.51845238  0.56        0.45625102  0.50545968  0.22275362
   0.625       0.63        0.63044427  0.61299978]
 [ 0.27773488  0.61190476  0.69        0.52728102  0.60129953  0.00591432
   0.63511905  0.67        0.6473236   0.6319955 ]
 [ 0.19617687  0.6575      0.68        0.44822248  0.64402681  0.51286153
   0.74166667  0.77        0.68295405  0.71886447]
 [ 0.62650342  0.86333333  0.87        0.87946439  0.86330336  0.46264349
   0.79083333  0.8         0.76336524  0.7704379 ]
 [ 0.21468074  0.67083333  0.86        0.57366257  0.62601049  0.32030844
   0.74416667  0.75        0.72304754  0.73469752]
 [ 0.55522324  0.72738095  0.77        0.72029684  0.71887821  0.52120959
   0.75333333  0.75        0.72197947  0.74131757]
 [ 0.25614799  0.68214286  0.73        0.661785    0.68489011  0.03030146
   0.62738095  0.65        0.45648334  0.61737041]
 [ 0.0659827   0.52827381  0.75        0.25154395  0.5039134   0.03833333
   0.49583333  0.5         0.48012084  0.49106505]
 [ 0.30307692  0.65916667  0.66        0.66555105  0.65502525  0.36706647
   0.62559524  0.68        0.67651152  0.61303086]
 [ 0.39570623  0.63666667  0.65        0.59675809  0.62086774  0.26132001
   0.65684524  0.76        0.53031671  0.624906  ]
 [ 0.29942029  0.65416667  0.66        0.59607271  0.64670912  0.28074074
   0.77666667  0.78        0.75932168  0.76950216]
 [ 0.34289855  0.65666667  0.65        0.71267583  0.63322872  0.62277778
   0.79416667  0.79        0.79856822  0.78681818]
 [ 0.18537037  0.59666667  0.6         0.61184208  0.58793373  0.45470344
   0.75        0.75        0.69553396  0.73462371]
 [ 0.45176633  0.7952381   0.81        0.65663561  0.77688104  0.56
   0.71        0.71        0.73493399  0.70512626]
 [ 0.13456505  0.63095238  0.68        0.50129359  0.61937188  0.46409142
   0.675       0.69        0.68206578  0.66097597]
 [ 0.33256215  0.6452381   0.66        0.61538155  0.62516234  0.21333333
   0.64833333  0.64        0.54835937  0.62459235]
 [ 0.6035691   0.76904762  0.78        0.76639216  0.75930403  0.5232046
   0.78095238  0.82        0.73731046  0.77379093]]
RF mean:
[0.35928114 0.6898631  0.722      0.64292291 0.67996986 0.35318486
 0.69458135 0.71633333 0.64929313 0.68269733]
---------------------------
---------------------------
SVM performance:
[[ 0.          0.5         0.58        0.          0.36666667  0.
   0.5         0.76        0.          0.43137255]
 [ 0.11826087  0.5575      0.58        0.27688224  0.46927517  0.02857143
   0.5125      0.62        0.05        0.40117647]
 [ 0.26077922  0.62        0.68        0.37537759  0.56143773  0.36
   0.68083333  0.68        0.675286    0.67732323]
 [ 0.02        0.51        0.55        0.04472136  0.36904762  0.
   0.5         0.72        0.          0.41830065]
 [ 0.3369386   0.65416667  0.72        0.53080604  0.64494048  0.51826087
   0.75916667  0.76        0.7225855   0.74308414]
 [ 0.19478261  0.59666667  0.6         0.43598756  0.5356685   0.49785953
   0.75        0.75        0.72922579  0.73840382]
 [ 0.          0.5         0.59        0.          0.37083333  0.26
   0.63        0.63        0.58586516  0.60867605]
 [ 0.44705882  0.7         0.8         0.54641016  0.6875      0.03809524
   0.51666667  0.62        0.1         0.4195098 ]
 [ 0.          0.5         0.7         0.          0.41176471  0.
   0.5         0.69        0.          0.40808824]
 [ 0.34        0.67        0.67        0.65740956  0.66478549  0.02857143
   0.5125      0.55        0.05        0.3725    ]
 [ 0.          0.5         0.61        0.          0.37867647 -0.01904762
   0.49166667  0.6         0.          0.3745098 ]
 [ 0.          0.5         0.61        0.          0.37867647  0.
   0.5         0.61        0.          0.37867647]
 [ 0.          0.5         0.58        0.          0.36666667  0.
   0.5         0.57        0.          0.3625    ]
 [ 0.          0.5         0.65        0.          0.39338235  0.
   0.5         0.55        0.          0.35416667]
 [ 0.          0.5         0.68        0.          0.40441176  0.
   0.5         0.64        0.          0.38970588]
 [ 0.          0.5         0.59        0.          0.37083333  0.
   0.5         0.65        0.          0.39338235]
 [ 0.          0.5         0.58        0.          0.36666667  0.
   0.5         0.59        0.          0.37083333]
 [ 0.          0.5         0.86        0.          0.4619883   0.
   0.5         0.58        0.          0.36666667]
 [ 0.          0.5         0.68        0.          0.40441176  0.
   0.5         0.54        0.          0.35      ]
 [ 0.          0.5         0.67        0.          0.40073529  0.
   0.5         0.64        0.          0.38970588]
 [ 0.          0.5         0.78        0.          0.4379085   0.04
   0.52083333  0.52        0.07071068  0.36969697]
 [ 0.20444444  0.605       0.6         0.51778609  0.56813603  0.
   0.5         0.63        0.          0.38602941]
 [ 0.          0.5         0.58        0.          0.36666667  0.
   0.5         0.74        0.          0.4248366 ]
 [ 0.          0.5         0.55        0.          0.35416667  0.31070582
   0.65083333  0.68        0.52166511  0.6092674 ]
 [ 0.          0.5         0.56        0.          0.35833333  0.28857143
   0.64333333  0.65        0.51303964  0.59059441]
 [ 0.          0.5         0.53        0.          0.34583333  0.26804442
   0.62416667  0.67        0.46528013  0.58652015]
 [ 0.          0.5         0.69        0.          0.40808824  0.48
   0.74        0.74        0.72347093  0.73245393]
 [ 0.          0.5         0.64        0.          0.38970588  0.
   0.5         0.59        0.          0.37083333]
 [ 0.          0.5         0.61        0.          0.37867647  0.00909091
   0.50416667  0.55        0.04564355  0.36904762]
 [ 0.15286478  0.56666667  0.67        0.22844571  0.49361695  0.
   0.5         0.66        0.          0.39705882]]
SVM mean:
[0.06917098 0.53266667 0.63966667 0.12046088 0.43698336 0.10362412
 0.55122222 0.63933333 0.17509242 0.45949736]
---------------------------
---------------------------
GBM performance:
[[ 0.6676614   0.83666667  0.85        0.80004808  0.8403194   0.17886345
   0.59821429  0.78        0.20754082  0.57266106]
 [ 0.3676614   0.68916667  0.7         0.62453474  0.67618132  0.46876326
   0.72916667  0.76        0.67946128  0.72630897]
 [ 0.48389422  0.73416667  0.76        0.6866016   0.72419414  0.26
   0.64083333  0.64        0.62267918  0.63631313]
 [ 0.2476614   0.6125      0.62        0.57116277  0.58996032  0.05160639
   0.50565476  0.7         0.1069045   0.44506069]
 [ 0.46100248  0.71666667  0.77        0.64909839  0.71975247  0.3852381
   0.695       0.69        0.65968607  0.67500722]
 [ 0.54153846  0.76333333  0.76        0.76184954  0.74992452  0.38037851
   0.69333333  0.68        0.66180115  0.67055583]
 [ 0.21685865  0.60333333  0.65        0.50078217  0.58377206  0.32
   0.65        0.65        0.60954898  0.63085775]
 [ 0.82376337  0.89404762  0.92        0.88818266  0.90087912  0.42798325
   0.72202381  0.75        0.70226752  0.72435897]
 [ 0.22049241  0.57857143  0.73        0.306533    0.54971989  0.15063595
   0.56845238  0.7         0.34361099  0.54342437]
 [ 0.26        0.63        0.63        0.62069094  0.62555556  0.29326087
   0.64583333  0.65        0.57559444  0.62950244]
 [ 0.25867683  0.60833333  0.67        0.47422328  0.58670622  0.56670975
   0.77083333  0.81        0.72212908  0.76801657]
 [ 0.72862492  0.84583333  0.88        0.8192488   0.86029304  0.57268449
   0.79702381  0.81        0.7693313   0.7924445 ]
 [ 0.3871645   0.69416667  0.71        0.64068724  0.68225108  0.0632524
   0.53416667  0.57        0.36247523  0.5094561 ]
 [-0.14819081  0.44940476  0.58        0.04082483  0.37815395  0.22963109
   0.60333333  0.62        0.54554215  0.58607004]
 [-0.02341147  0.50714286  0.65        0.10224725  0.45245314  0.20576778
   0.5952381   0.68        0.40055005  0.55847931]
 [ 0.10982684  0.55166667  0.62        0.26881061  0.48261905  0.25652355
   0.64761905  0.72        0.42395715  0.61945971]
 [ 0.61722104  0.795       0.8         0.7952904   0.78668359  0.34754637
   0.66833333  0.7         0.56819893  0.64721473]
 [-0.01111111  0.48888889  0.84        0.          0.45614035  0.45869261
   0.73        0.74        0.69661544  0.71967865]
 [ 0.29756745  0.65        0.73        0.52701559  0.63554487  0.45889328
   0.725       0.74        0.70645854  0.71880897]
 [ 0.30038398  0.64464286  0.72        0.54542007  0.63458764  0.15550453
   0.57321429  0.67        0.25013669  0.53004067]
 [ 0.0582996   0.49375     0.77        0.          0.43464052 -0.02521739
   0.50666667  0.51        0.46045566  0.48540598]
 [ 0.18        0.58083333  0.58        0.52938121  0.56004052  0.39198837
   0.6827381   0.74        0.5710858   0.67877289]
 [ 0.39859307  0.6925      0.73        0.64029239  0.66792041  0.01013634
   0.50863095  0.71        0.11959603  0.45775327]
 [ 0.47887352  0.72666667  0.74        0.70415024  0.72104285  0.48
   0.74583333  0.74        0.71879791  0.73631313]
 [ 0.2444137   0.62        0.64        0.55578245  0.60620879  0.55478261
   0.765       0.77        0.76524765  0.7612629 ]
 [ 0.3484472   0.66083333  0.68        0.60956165  0.64113553  0.5785639
   0.79666667  0.81        0.75792923  0.79193029]
 [ 0.24684025  0.60714286  0.72        0.42894298  0.58812217  0.52
   0.76        0.76        0.75368356  0.75376263]
 [ 0.14022232  0.58809524  0.67        0.33693843  0.53584112  0.43744589
   0.71        0.74        0.66823582  0.70463203]
 [ 0.21221449  0.62083333  0.67        0.4821082   0.60161172  0.10289855
   0.54916667  0.56        0.40449373  0.51418304]
 [ 0.39637106  0.69404762  0.72        0.60714772  0.67114386  0.43238595
   0.70059524  0.78        0.56437429  0.6771609 ]]
GBM mean:
[0.31705204 0.6526078  0.717      0.51725191 0.63144664 0.32383066
 0.66061905 0.706      0.54661297 0.64216323]
---------------------------
---------------------------
BDDAE performance:
[[-0.03969827  0.47916667  0.515       0.42421352  0.4668955  -0.02156177
   0.48666667  0.69        0.1468047   0.45771708]
 [ 0.20492512  0.6040404   0.6         0.59612583  0.59672088  0.52381228
   0.7625      0.77        0.75394965  0.75912975]
 [-0.13755066  0.42916667  0.46        0.35220154  0.41145355  0.2
   0.6         0.6         0.58143136  0.591129  ]
 [-0.09847911  0.45        0.455       0.43161128  0.44253336  0.23697845
   0.62261905  0.705       0.49958162  0.59931042]
 [ 0.23481534  0.61875     0.63        0.6012087   0.61088294  0.39
   0.695       0.695       0.68113723  0.68869053]
 [ 0.51        0.755       0.755       0.74222061  0.74968591  0.20872451
   0.60505051  0.6         0.58094397  0.58931843]
 [ 0.022258    0.51041667  0.535       0.47669319  0.50378977 -0.04
   0.48        0.48        0.47023766  0.47517616]
 [ 0.45284043  0.71190476  0.79        0.6740792   0.72244439  0.03855378
   0.51875     0.57        0.3778671   0.48739945]
 [ 0.32043174  0.65357143  0.735       0.59599222  0.65220702  0.29659228
   0.62857143  0.76        0.48912774  0.62218098]
 [-0.11        0.445       0.445       0.41828645  0.43259405  0.1260543
   0.56262626  0.57        0.5432409   0.55558155]
 [-0.13552839  0.43333333  0.47        0.37312367  0.42036557  0.12004737
   0.55625     0.595       0.51421112  0.55108607]
 [-0.02909295  0.48541667  0.52        0.43782848  0.47678814  0.41488206
   0.7125      0.715       0.70436873  0.70404675]
 [ 0.08561059  0.54375     0.555       0.52742421  0.53727301  0.20849137
   0.6030303   0.61        0.59038579  0.5995205 ]
 [ 0.09326151  0.54340659  0.595       0.46601198  0.53227371  0.40460695
   0.70353535  0.705       0.6982657   0.70043589]
 [ 0.10401786  0.54880952  0.655       0.4253441   0.54417376  0.03392159
   0.51703297  0.565       0.47120203  0.51095021]
 [-0.00427728  0.49583333  0.53        0.37515031  0.46482734  0.15689879
   0.57032967  0.66        0.44703321  0.55437055]
 [ 0.50291541  0.75833333  0.76        0.74011431  0.74565948  0.21331925
   0.60625     0.63        0.56847123  0.59526649]
 [ 0.23593786  0.60098039  0.835       0.4161566   0.61306426  0.00809952
   0.50416667  0.53        0.45462141  0.49667372]
 [ 0.29002278  0.6452381   0.71        0.60396785  0.64003415  0.20340031
   0.6040404   0.6         0.58642138  0.59205391]
 [ 0.2947044   0.64395604  0.7         0.59103526  0.63615049 -0.09040588
   0.45494505  0.54        0.32001371  0.44162756]
 [-0.0834477   0.465625    0.73        0.04677072  0.43519969 -0.11
   0.445       0.445       0.44073514  0.44299992]
 [-0.02        0.49        0.49        0.45726765  0.47477918  0.02324768
   0.51208791  0.58        0.38884924  0.49117342]
 [ 0.00180169  0.50208333  0.52        0.47388848  0.49323773  0.46537874
   0.71        0.825       0.65774783  0.72607693]
 [ 0.09872201  0.5489899   0.555       0.52096258  0.53700136  0.14219989
   0.56868687  0.58        0.54822578  0.56389279]
 [ 0.13207971  0.56515152  0.575       0.5409248   0.55700846  0.15
   0.575       0.575       0.55160343  0.5639135 ]
 [ 0.37628176  0.68636364  0.695       0.67318488  0.68390617  0.27347982
   0.63333333  0.65        0.60500123  0.62749255]
 [ 0.38952851  0.69285714  0.75        0.65644474  0.68785985  0.48
   0.74        0.74        0.72892601  0.73526326]
 [-0.07281722  0.46373626  0.53        0.37409155  0.45426557  0.4594873
   0.72291667  0.75        0.69816435  0.72352309]
 [ 0.02964106  0.51458333  0.53        0.49176276  0.50717842  0.36381752
   0.67878788  0.69        0.66362818  0.67752055]
 [ 0.14020036  0.56875     0.595       0.54360218  0.56522532 -0.05621106
   0.47307692  0.585       0.19038864  0.42160118]]
BDDAE mean:
[0.12630349 0.56180713 0.60733333 0.50158966 0.55318263 0.19412717
 0.5950918  0.63366667 0.53175287 0.58483741]
---------------------------
---------------------------
DUMMY performance:
[[0.         0.5        0.58       0.         0.36666667 0.
  0.5        0.76       0.         0.43137255]
 [0.         0.5        0.53       0.         0.34583333 0.
  0.5        0.61       0.         0.37867647]
 [0.         0.5        0.58       0.         0.36666667 0.
  0.5        0.49       0.         0.32857143]
 [0.         0.5        0.54       0.         0.35       0.
  0.5        0.72       0.         0.41830065]
 [0.         0.5        0.62       0.         0.38235294 0.
  0.5        0.52       0.         0.34166667]
 [0.         0.5        0.49       0.         0.32857143 0.
  0.5        0.53       0.         0.34583333]
 [0.         0.5        0.59       0.         0.37083333 0.
  0.5        0.5        0.         0.33333333]
 [0.         0.5        0.68       0.         0.40441176 0.
  0.5        0.61       0.         0.37867647]
 [0.         0.5        0.7        0.         0.41176471 0.
  0.5        0.69       0.         0.40808824]
 [0.         0.5        0.5        0.         0.33333333 0.
  0.5        0.54       0.         0.35      ]
 [0.         0.5        0.61       0.         0.37867647 0.
  0.5        0.61       0.         0.37867647]
 [0.         0.5        0.61       0.         0.37867647 0.
  0.5        0.61       0.         0.37867647]
 [0.         0.5        0.58       0.         0.36666667 0.
  0.5        0.57       0.         0.3625    ]
 [0.         0.5        0.65       0.         0.39338235 0.
  0.5        0.55       0.         0.35416667]
 [0.         0.5        0.68       0.         0.40441176 0.
  0.5        0.64       0.         0.38970588]
 [0.         0.5        0.59       0.         0.37083333 0.
  0.5        0.65       0.         0.39338235]
 [0.         0.5        0.58       0.         0.36666667 0.
  0.5        0.59       0.         0.37083333]
 [0.         0.5        0.86       0.         0.4619883  0.
  0.5        0.58       0.         0.36666667]
 [0.         0.5        0.68       0.         0.40441176 0.
  0.5        0.54       0.         0.35      ]
 [0.         0.5        0.67       0.         0.40073529 0.
  0.5        0.64       0.         0.38970588]
 [0.         0.5        0.78       0.         0.4379085  0.
  0.5        0.49       0.         0.32857143]
 [0.         0.5        0.51       0.         0.3375     0.
  0.5        0.63       0.         0.38602941]
 [0.         0.5        0.58       0.         0.36666667 0.
  0.5        0.74       0.         0.4248366 ]
 [0.         0.5        0.55       0.         0.35416667 0.
  0.5        0.55       0.         0.35416667]
 [0.         0.5        0.56       0.         0.35833333 0.
  0.5        0.52       0.         0.34166667]
 [0.         0.5        0.53       0.         0.34583333 0.
  0.5        0.57       0.         0.3625    ]
 [0.         0.5        0.69       0.         0.40808824 0.
  0.5        0.5        0.         0.33333333]
 [0.         0.5        0.64       0.         0.38970588 0.
  0.5        0.59       0.         0.37083333]
 [0.         0.5        0.61       0.         0.37867647 0.
  0.5        0.55       0.         0.35416667]
 [0.         0.5        0.62       0.         0.38235294 0.
  0.5        0.66       0.         0.39705882]]
DUMMY mean:
[0.         0.5        0.613      0.         0.37820384 0.
 0.5        0.59166667 0.         0.37006653]
---------------------------
Current folder: C:\Users\Javier\Dropbox\c_sldl_1_2_15
-------------------------------------
----- RESULTS from .csv files ------
-------------------------------------
---------------------------
ALG Means: 
-rows: alg : KNN = 0; DT = 1; RF = 2; SVM = 3; GBM = 4; BDDAE = 5; DUMMY = 5
columns:
'val_cohen','val_uar', 'val_acc', 'val_gm',  'val_f1',  'aro_cohen','aro_uar', 'aro_acc', 'aro_gm',  'aro_f1'
-------------------------------------------------------------
  v_c   v_u   v_a   v_g   v_f1  a_c   a_u   a_a   a_g   a_f1
[[0.326 0.661 0.704 0.59  0.651 0.364 0.679 0.708 0.63  0.67 ]
 [0.358 0.679 0.707 0.621 0.668 0.36  0.682 0.698 0.64  0.669]
 [0.359 0.69  0.722 0.643 0.68  0.353 0.695 0.716 0.649 0.683]
 [0.069 0.533 0.64  0.12  0.437 0.104 0.551 0.639 0.175 0.459]
 [0.317 0.653 0.717 0.517 0.631 0.324 0.661 0.706 0.547 0.642]
 [0.126 0.562 0.607 0.502 0.553 0.194 0.595 0.634 0.532 0.585]
 [0.    0.5   0.613 0.    0.378 0.    0.5   0.592 0.    0.37 ]]
-------------------------------------------------------------
Standard Deviation of each metric:
[[0.206 0.102 0.093 0.178 0.109 0.164 0.083 0.074 0.112 0.085]
 [0.202 0.098 0.092 0.164 0.102 0.157 0.082 0.076 0.092 0.084]
 [0.195 0.089 0.085 0.13  0.094 0.189 0.08  0.072 0.113 0.082]
 [0.125 0.059 0.077 0.209 0.096 0.171 0.085 0.068 0.273 0.127]
 [0.219 0.106 0.083 0.237 0.123 0.176 0.087 0.073 0.192 0.1  ]
 [0.192 0.095 0.111 0.137 0.1   0.181 0.089 0.088 0.145 0.096]
 [0.    0.    0.08  0.    0.03  0.    0.    0.072 0.    0.028]]
-------------------------------------------------------------
std_dev/mean [percentage]:
[[ 63.  15.  13.  30.  17.  45.  12.  10.  18.  13.]
 [ 56.  14.  13.  26.  15.  44.  12.  11.  14.  13.]
 [ 54.  13.  12.  20.  14.  54.  12.  10.  17.  12.]
 [181.  11.  12. 174.  22. 165.  15.  11. 156.  28.]
 [ 69.  16.  12.  46.  19.  54.  13.  10.  35.  16.]
 [152.  17.  18.  27.  18.  93.  15.  14.  27.  16.]
 [  0.   0.  13.   0.   8.   0.   0.  12.   0.   8.]]
-------------------------------------
Current folder: C:\Users\Javier\Dropbox\c_sldl_1_2_15
-------------------------------------
----- RESULTS ------
-------------------------------------
Window size (sec):  16.0
step (sec):  12.0
overlap:  True
perc. of overlap:  25.0
overlap duration (sec):  4.0
Number of windows / instances:  100
Elapsed time: 692.7013246297836 minutes
Elapsed time: 11.545022077163061 hours
