2024-05-03 00:26:51.674412: I tensorflow/core/util/port.cc:113] oneDNN custom operations are on. You may see slightly different numerical results due to floating-point round-off errors from different computation orders. To turn them off, set the environment variable `TF_ENABLE_ONEDNN_OPTS=0`.
2024-05-03 00:26:55.479853: I tensorflow/core/util/port.cc:113] oneDNN custom operations are on. You may see slightly different numerical results due to floating-point round-off errors from different computation orders. To turn them off, set the environment variable `TF_ENABLE_ONEDNN_OPTS=0`.
2024-05-03 00:27:05.152920: I tensorflow/core/platform/cpu_feature_guard.cc:210] This TensorFlow binary is optimized to use available CPU instructions in performance-critical operations.
To enable the following instructions: AVX2 FMA, in other operations, rebuild TensorFlow with the appropriate compiler flags.
    
    
-------------------------------
participant:  1
-------------------------------
    
    
participant:  1
corriendo en PC gamer:
Window size (sec):  10.0
step (sec):  10.0
overlap:  True
perc. of overlap:  0.0
overlap duration (sec):  0.0
Nearest multiple of 16 to 10000 is: 10000
Nearest multiple of 16 to 10000 is: 10000
['gsr_chunks', 'ppg_chunks', 'val_chunks', 'aro_chunks', 'time_chunks', 'tag_chunks', 'video']
C:\Users\Javier\Dropbox\c_sldl_1_2_29\functions.py:880: FutureWarning: ChainedAssignmentError: behaviour will change in pandas 3.0!
You are setting values through chained assignment. Currently this works in certain cases, but when using Copy-on-Write (which will become the default behaviour in pandas 3.0) this will never work to update the original DataFrame or Series, because the intermediate object on which we are setting values will behave as a copy.
A typical example is when you are setting values in a column of a DataFrame, like:


[1m1/1[0m [32m━━━━━━━━━━━━━━━━━━━━[0m[37m[0m [1m0s[0m 110ms/step
predicted [0.55141133 0.18906534 0.5081413  0.7122103  0.85440546 0.75322694
 0.7234427  0.7426673  0.70967865 0.92645764 0.77985483 0.8161958
 0.10796324 0.46137407 0.34716874 0.78816307 0.4260221  0.7878293
 0.64332855 0.7576245  0.68142545 0.8629753  0.8103074  0.7505514
 0.6518657 ]
predicted [1 0 1 1 1 1 1 1 1 1 1 1 0 0 0 1 0 1 1 1 1 1 1 1 1]
expected [ True  True  True False False False  True  True False  True  True False
 False  True False  True False  True  True  True False False  True  True
  True]
accuracy: 0.64
confusion matrix: 
[[ 3  7]
 [ 2 13]]
              precision    recall  f1-score   support

       False       0.60      0.30      0.40        10
        True       0.65      0.87      0.74        15

    accuracy                           0.64        25
   macro avg       0.62      0.58      0.57        25
weighted avg       0.63      0.64      0.61        25

macro avg f1-score: 0.5714285714285714
macro avg (UAR): 0.5833333333333334
Sensitivity:  0.3
Specificity:  0.8666666666666667
g-mean:  0.5099019513592785
-------- Model Performance ----------: 
accuracy:  [0.64 0.52 0.48 0.64 0.52 0.56 0.6  0.68 0.64 0.64]
gmean:  [0.56568542 0.4472136  0.48304589 0.50990195 0.38297084 0.51639778
 0.48989795 0.66332496 0.56568542 0.50990195]
f1_score:  [0.59893048 0.47916667 0.47665056 0.57142857 0.44852941 0.53310696
 0.54044118 0.66666667 0.59893048 0.57142857]
UAR:  [0.6        0.48333333 0.48333333 0.58333333 0.46666667 0.53333333
 0.55       0.66666667 0.6        0.58333333]
Cohen Kappa score:  [ 0.21052632 -0.03448276 -0.03174603  0.18181818 -0.07142857  0.06779661
  0.10714286  0.33333333  0.21052632  0.18181818]
arousal and valece = ok
------------- Evaluating model --------------
-------------------------------------
-------------------------------------
participant:  30
-------------------------------------
----- RESULTS ------
-------------------------------------
Window size (sec):  10.0
step (sec):  10.0
overlap:  True
perc. of overlap:  0.0
overlap duration (sec):  0.0
Number of windows / instances:  123
-rows: alg : KNN = 0; DT = 1; RF = 2; SVM = 3; GBM = 4; BDDAE = 5; DUMMY = 5
columns:
'val_cohen','val_uar', 'val_acc', 'val_gm',  'val_f1',  'aro_cohen','aro_uar', 'aro_acc', 'aro_gm',  'aro_f1'
-------------------------------------------------------------
  v_c   v_u   v_a   v_g   v_f1  a_c   a_u   a_a   a_g   a_f1
[[0.665 0.839 0.837 0.827 0.827 0.465 0.735 0.749 0.712 0.725]
 [0.471 0.77  0.779 0.74  0.764 0.469 0.765 0.781 0.691 0.757]
 [0.593 0.815 0.828 0.799 0.812 0.421 0.713 0.73  0.714 0.71 ]
 [0.091 0.542 0.642 0.171 0.457 0.    0.5   0.635 0.    0.388]
 [0.492 0.731 0.753 0.727 0.73  0.349 0.632 0.707 0.581 0.62 ]
 [0.116 0.555 0.592 0.513 0.549 0.072 0.53  0.604 0.445 0.518]
 [0.    0.5   0.618 0.    0.382 0.    0.5   0.635 0.    0.388]]
participant performance loaded
    
    
-------------------------------
LAST participant's saved data: 
30
-------------------------------
    
    
---------------------------
KNN performance:
[[ 0.39110152  0.69809524  0.69551282  0.68308752  0.68820901  0.45987185
   0.73722222  0.81474359  0.66360534  0.72175367]
 [ 0.42425894  0.7147619   0.71410256  0.70232793  0.70700244  0.3029925
   0.65375     0.67435897  0.58752702  0.63280616]
 [ 0.41551075  0.7052381   0.7224359   0.67280168  0.69698618  0.43013465
   0.715       0.71602564  0.70497132  0.71134241]
 [ 0.38546303  0.69214286  0.69935897  0.66754167  0.68369781  0.12536053
   0.56041667  0.66666667  0.36945297  0.54009595]
 [ 0.5713251   0.77375     0.80705128  0.75294845  0.78077965  0.41269454
   0.70547619  0.70897436  0.6799388   0.69500774]
 [ 0.45357867  0.72738095  0.72564103  0.71508106  0.72114885  0.62821466
   0.81404762  0.81410256  0.79914544  0.80795108]
 [ 0.33883221  0.66678571  0.68974359  0.62615067  0.65698063  0.28430664
   0.64166667  0.64294872  0.63141395  0.63772561]
 [ 0.85964286  0.91875     0.94166667  0.91152756  0.92877568  0.6097809
   0.81410714  0.81153846  0.80816638  0.80308873]
 [ 0.3326454   0.65833333  0.73397436  0.60999299  0.66069143  0.2768126
   0.63541667  0.72564103  0.51613365  0.62431221]
 [ 0.29406299  0.64619048  0.65        0.62359347  0.63735945  0.20637075
   0.60190476  0.61282051  0.5788608   0.59585754]
 [ 0.08642228  0.5425      0.5775641   0.45502628  0.53174566  0.38374545
   0.68339286  0.73076923  0.60675406  0.6752857 ]
 [ 0.60528266  0.79607143  0.81987179  0.78186956  0.80094421  0.40585099
   0.69928571  0.73397436  0.66264711  0.69552595]
 [ 0.34776508  0.67369048  0.69038462  0.62849423  0.66615989  0.17818025
   0.58666667  0.6         0.57293905  0.58618284]
 [ 0.14550988  0.57375     0.64935897  0.42453313  0.55333333  0.35640659
   0.67785714  0.68205128  0.65101455  0.66699353]
 [ 0.20914344  0.60152778  0.67371795  0.51852625  0.59359981  0.11766397
   0.55892857  0.58269231  0.52728039  0.54859458]
 [ 0.21213246  0.60071429  0.64102564  0.55720424  0.59558481  0.43149736
   0.71041667  0.76538462  0.66707914  0.70644946]
 [ 0.53875144  0.76696429  0.78076923  0.7552453   0.76643441  0.22575428
   0.60761905  0.65192308  0.52102722  0.58471092]
 [ 0.13248652  0.56636364  0.81346154  0.23467089  0.54974449  0.42742039
   0.71232143  0.72179487  0.68711385  0.70225455]
 [ 0.1822472   0.5875      0.69102564  0.42998611  0.57425875  0.2225807
   0.61309524  0.61730769  0.579965    0.59770407]
 [ 0.19914375  0.595       0.66730769  0.47765595  0.58307854  0.35678331
   0.67303571  0.71794872  0.62745764  0.66842646]
 [-0.04103666  0.47333333  0.68333333  0.16047272  0.46094327  0.05153643
   0.525       0.5224359   0.47955334  0.50965162]
 [ 0.26434102  0.63404762  0.62948718  0.61464381  0.62156385  0.3043997
   0.65160714  0.68397436  0.62718108  0.64570261]
 [ 0.13939508  0.56839286  0.59551282  0.53200682  0.56158095  0.18871508
   0.59        0.73205128  0.4226145   0.58101106]
 [-0.00651742  0.49857143  0.49487179  0.46662271  0.48005966  0.27463936
   0.63619048  0.65        0.61113018  0.62926071]
 [ 0.4313454   0.71047619  0.725       0.69120128  0.70932582  0.60930233
   0.80595238  0.80384615  0.7961067   0.8009041 ]
 [ 0.20137356  0.60142857  0.61089744  0.55893762  0.58455014  0.31951642
   0.66166667  0.66217949  0.65342078  0.65685981]
 [ 0.45178105  0.71388889  0.77371795  0.68455307  0.71952332  0.47715412
   0.73809524  0.74102564  0.72492187  0.73337548]
 [ 0.21333758  0.60125     0.66730769  0.4989466   0.58151506  0.47667096
   0.73142857  0.75769231  0.71927932  0.73539301]
 [ 0.15519971  0.57482143  0.61025641  0.48857015  0.54932357  0.32514688
   0.66        0.66666667  0.65029376  0.65911047]
 [ 0.66520106  0.83928571  0.83653846  0.82653436  0.82707557  0.46512039
   0.73517857  0.74871795  0.71199722  0.72476816]]
KNN mean:
[0.31999089 0.65736688 0.70036325 0.5916918  0.64906587 0.34448749
 0.67122487 0.69867521 0.62796641 0.66260354]
---------------------------
---------------------------
DT performance:
[[ 0.43036007  0.70928571  0.70641026  0.71973436  0.7032967   0.22419667
   0.64694444  0.7224359   0.57194448  0.62114262]
 [ 0.19534867  0.56904762  0.56794872  0.59079492  0.5645621   0.39075037
   0.72375     0.73141026  0.67099979  0.71290974]
 [ 0.46966301  0.72428571  0.71987179  0.71908711  0.71452492  0.37223099
   0.70071429  0.70641026  0.69755382  0.6982727 ]
 [ 0.36425636  0.68714286  0.68397436  0.69253281  0.67841159 -0.05620753
   0.48125     0.54423077  0.29893911  0.46584242]
 [ 0.46138072  0.73303571  0.73974359  0.70654281  0.72551129  0.38437935
   0.67738095  0.67435897  0.69477062  0.67191475]
 [ 0.26913596  0.64285714  0.64615385  0.61091106  0.63471778  0.35121724
   0.66142857  0.66794872  0.62200783  0.64354698]
 [ 0.2627852   0.61380952  0.625       0.62777372  0.60443556  0.16707628
   0.54166667  0.54166667  0.53183592  0.53394689]
 [ 0.70235728  0.85138889  0.86858974  0.84310924  0.84908177  0.42347403
   0.72803571  0.75384615  0.6885098   0.73107726]
 [ 0.30935466  0.62777778  0.69102564  0.616478    0.60484815  0.00511669
   0.55208333  0.58525641  0.39526691  0.52360733]
 [ 0.0819547   0.5697619   0.56858974  0.52793654  0.55985292  0.10333483
   0.57833333  0.57884615  0.5572832   0.55848797]
 [-0.14129447  0.43285714  0.44551282  0.37472417  0.41444056  0.32125131
   0.61535714  0.65064103  0.64083644  0.60878364]
 [ 0.44786902  0.77053571  0.78974359  0.71355011  0.7689816   0.24261722
   0.60839286  0.61923077  0.61376968  0.60214578]
 [ 0.40054339  0.72732143  0.74935897  0.67732884  0.72868564  0.16296106
   0.58761905  0.59358974  0.54099912  0.57913795]
 [ 0.09062354  0.54875     0.58653846  0.53023307  0.53971543  0.23714397
   0.64452381  0.64102564  0.58844411  0.63568265]
 [ 0.14796076  0.57958333  0.62371795  0.55521792  0.57262464  0.23754439
   0.61464286  0.65128205  0.60365208  0.60894903]
 [ 0.0742583   0.55392857  0.56987179  0.47158712  0.54219503  0.35968037
   0.65138889  0.68653846  0.65350403  0.64946895]
 [ 0.48755603  0.74071429  0.75641026  0.71565429  0.73656238  0.43601679
   0.71672619  0.71474359  0.66382458  0.70242938]
 [ 0.24559356  0.61227273  0.7974359   0.36340797  0.6072082   0.26854329
   0.59232143  0.60576923  0.54894755  0.5760996 ]
 [ 0.43111534  0.70416667  0.73910256  0.68575772  0.69099624  0.44696734
   0.71714286  0.7224359   0.72287915  0.71431485]
 [ 0.28686089  0.64875     0.66794872  0.59304027  0.63558887  0.14369591
   0.575       0.60897436  0.47709953  0.57742672]
 [ 0.04724873  0.51        0.675       0.38657828  0.50617815 -0.22084639
   0.42738095  0.42371795  0.30394885  0.40726163]
 [ 0.23033691  0.63        0.62948718  0.62008201  0.62251693  0.26980004
   0.65660714  0.68397436  0.6073794   0.65035272]
 [ 0.13060093  0.54744048  0.5525641   0.53613552  0.53534826  0.15765249
   0.59833333  0.69294872  0.33138383  0.57437067]
 [ 0.34914807  0.6497619   0.65        0.62647527  0.6420185   0.29118431
   0.68214286  0.69038462  0.62899617  0.67822247]
 [ 0.2400754   0.63738095  0.64166667  0.62296636  0.62854881  0.41753762
   0.66785714  0.66730769  0.67777709  0.66142524]
 [ 0.20980058  0.61952381  0.62692308  0.60430228  0.60675228  0.27016791
   0.63595238  0.64423077  0.63594644  0.63136988]
 [ 0.28281338  0.64027778  0.71666667  0.62642621  0.64577031  0.4578901
   0.73690476  0.73974359  0.71099762  0.73330222]
 [-0.04152946  0.445       0.48589744  0.43163691  0.42023936  0.3598012
   0.67857143  0.68589744  0.64462563  0.66804654]
 [ 0.35755266  0.77821429  0.76410256  0.72221777  0.7514734   0.28845541
   0.64714286  0.64935897  0.6418235   0.6399896 ]
 [ 0.47120099  0.76964286  0.77884615  0.74021713  0.76354133  0.46915438
   0.76482143  0.78076923  0.69080175  0.7573128 ]]
DT mean:
[0.27649771 0.64248383 0.66880342 0.60841466 0.63328762 0.26609292
 0.63701389 0.65529915 0.58855827 0.62722803]
---------------------------
---------------------------
RF performance:
[[ 0.56507599  0.72357143  0.72307692  0.76677987  0.71666306  0.41539759
   0.72611111  0.81282051  0.61412499  0.73094867]
 [ 0.41178596  0.72666667  0.73012821  0.76286325  0.72271118  0.54855783
   0.71803571  0.73205128  0.7939291   0.70191185]
 [ 0.40084581  0.65880952  0.67371795  0.69321399  0.65150239  0.43518742
   0.66690476  0.67371795  0.61001606  0.66130241]
 [ 0.29609601  0.63047619  0.63525641  0.72644471  0.6197787   0.22815703
   0.61180556  0.69166667  0.3800885   0.59927589]
 [ 0.48790691  0.71267857  0.74102564  0.7071349   0.71669836  0.47444062
   0.68833333  0.69166667  0.71297278  0.68172324]
 [ 0.42889081  0.73928571  0.74038462  0.67367438  0.73373238  0.47305253
   0.78071429  0.78333333  0.65966774  0.77533328]
 [ 0.22425372  0.6160119   0.63333333  0.71440178  0.60962049  0.22637073
   0.59166667  0.59358974  0.57066445  0.58630106]
 [ 0.75304822  0.87708333  0.90192308  0.8922886   0.87975257  0.54911436
   0.65446429  0.68205128  0.75257082  0.65024381]
 [ 0.26934663  0.61875     0.68461538  0.57628769  0.59725582  0.15877804
   0.59583333  0.65192308  0.48092032  0.5917221 ]
 [ 0.33605649  0.61404762  0.61153846  0.66036479  0.59802753  0.33217813
   0.60880952  0.61217949  0.56812558  0.59594527]
 [ 0.09865054  0.475       0.50897436  0.46540635  0.45878829  0.29804622
   0.65964286  0.67692308  0.74363238  0.64758058]
 [ 0.52642252  0.73714286  0.74871795  0.73752525  0.72376828  0.37375048
   0.68214286  0.70833333  0.70621945  0.67474814]
 [ 0.31575874  0.68547619  0.69935897  0.68786422  0.67766622  0.20647973
   0.62952381  0.63333333  0.63711233  0.62354312]
 [ 0.02092364  0.59        0.6474359   0.37219804  0.58977591  0.30144093
   0.68190476  0.68397436  0.60943125  0.67800741]
 [ 0.21804839  0.62472222  0.675       0.51083847  0.61857376  0.27445289
   0.60321429  0.62692308  0.58775936  0.58567874]
 [ 0.23950085  0.63696429  0.66730769  0.53309287  0.62986037  0.40574167
   0.69861111  0.75064103  0.69113604  0.70069346]
 [ 0.64753647  0.80785714  0.81282051  0.81980047  0.80505939  0.52169373
   0.73922619  0.74038462  0.67053011  0.73041667]
 [ 0.15714286  0.54636364  0.82179487  0.39791645  0.52757058  0.3720845
   0.72982143  0.7474359   0.68487263  0.72569211]
 [ 0.45099058  0.73680556  0.78012821  0.59345286  0.73470564  0.41453791
   0.70714286  0.71474359  0.74340865  0.70065546]
 [ 0.42635215  0.64125     0.68397436  0.62006406  0.63501788  0.11968756
   0.63553571  0.69166667  0.50655027  0.62608285]
 [ 0.00308176  0.48333333  0.68141026  0.21819705  0.47796841 -0.04022795
   0.51428571  0.51282051  0.42435531  0.50782884]
 [ 0.28183863  0.6847619   0.68782051  0.59620447  0.68126082  0.257921
   0.66446429  0.70705128  0.67755848  0.66977238]
 [ 0.10592788  0.55172619  0.56025641  0.46506946  0.53981407  0.13603763
   0.60305556  0.725       0.60654808  0.60358249]
 [ 0.11670805  0.68571429  0.69230769  0.59999713  0.67822122  0.35393428
   0.66666667  0.67692308  0.69767481  0.65746573]
 [ 0.27393347  0.605       0.62051282  0.64812182  0.60081932  0.46575038
   0.71666667  0.71474359  0.72222007  0.70891053]
 [ 0.1880317   0.59380952  0.59423077  0.58086567  0.5714953   0.45927371
   0.69571429  0.69871795  0.6927095   0.6926783 ]
 [ 0.38114082  0.7         0.76538462  0.65888736  0.70222548  0.41270562
   0.7047619   0.70576923  0.74729841  0.69445291]
 [ 0.02925846  0.555       0.59358974  0.37022012  0.53249361  0.39742462
   0.70696429  0.73974359  0.70822677  0.70617106]
 [ 0.28009942  0.66607143  0.69294872  0.68402256  0.65331183  0.20902939
   0.62071429  0.6224359   0.62646219  0.61506536]
 [ 0.59302802  0.81482143  0.8275641   0.79880834  0.81201947  0.42144741
   0.71267857  0.73012821  0.71428553  0.70951021]]
RF mean:
[0.31758938 0.65797336 0.69455128 0.61773357 0.64987194 0.34008153
 0.66718056 0.69108974 0.6447024  0.66110813]
---------------------------
---------------------------
SVM performance:
[[ 0.00000000e+00  5.00000000e-01  5.36538462e-01  0.00000000e+00
   3.48859649e-01  0.00000000e+00  5.00000000e-01  7.48076923e-01
   0.00000000e+00  4.27865613e-01]
 [ 1.45771543e-01  5.70000000e-01  6.01923077e-01  4.00143879e-01
   5.16276046e-01  3.07692308e-02  5.12500000e-01  6.26282051e-01
   5.00000000e-02  4.03759398e-01]
 [ 3.58224832e-01  6.69523810e-01  7.07051282e-01  5.46214750e-01
   6.37371984e-01  3.79134627e-01  6.89523810e-01  6.92948718e-01
   6.61112234e-01  6.77812188e-01]
 [ 1.44994246e-01  5.69047619e-01  5.94230769e-01  3.38382606e-01
   4.91004103e-01  0.00000000e+00  5.00000000e-01  6.91025641e-01
   0.00000000e+00  4.08441558e-01]
 [ 4.42955971e-01  6.98750000e-01  7.64743590e-01  6.31759818e-01
   7.02315101e-01  4.30313589e-01  7.15000000e-01  7.17307692e-01
   6.97154517e-01  7.07694805e-01]
 [ 2.21453803e-01  6.10714286e-01  6.08974359e-01  5.40115996e-01
   5.76348039e-01  4.80458518e-01  7.42142857e-01  7.40384615e-01
   7.26160356e-01  7.33528971e-01]
 [ 0.00000000e+00  5.00000000e-01  5.85256410e-01  0.00000000e+00
   3.69085213e-01  2.19738695e-01  6.10714286e-01  6.09615385e-01
   5.49457595e-01  5.80965946e-01]
 [ 5.91481466e-01  7.75694444e-01  8.44230769e-01  7.25699822e-01
   7.84023601e-01  2.33973550e-01  6.02678571e-01  6.73717949e-01
   4.95582442e-01  5.83315581e-01]
 [ 0.00000000e+00  5.00000000e-01  6.82692308e-01  0.00000000e+00
   4.05584416e-01  0.00000000e+00  5.00000000e-01  6.91025641e-01
   0.00000000e+00  4.08441558e-01]
 [ 1.50927147e-01  5.73571429e-01  5.85256410e-01  3.58269200e-01
   4.97497236e-01 -1.11022302e-17  5.00000000e-01  5.28205128e-01
   4.08248290e-02  3.57675807e-01]
 [ 0.00000000e+00  5.00000000e-01  5.92948718e-01  0.00000000e+00
   3.72180451e-01  0.00000000e+00  5.00000000e-01  6.09615385e-01
   0.00000000e+00  3.78496241e-01]
 [ 0.00000000e+00  5.00000000e-01  6.09615385e-01  0.00000000e+00
   3.78496241e-01  0.00000000e+00  5.00000000e-01  6.09615385e-01
   0.00000000e+00  3.78496241e-01]
 [ 0.00000000e+00  5.00000000e-01  5.85256410e-01  0.00000000e+00
   3.69085213e-01  0.00000000e+00  5.00000000e-01  5.61538462e-01
   0.00000000e+00  3.59385965e-01]
 [ 0.00000000e+00  5.00000000e-01  6.51282051e-01  0.00000000e+00
   3.94285714e-01  2.81814975e-01  6.38095238e-01  6.50000000e-01
   5.20905147e-01  5.95135756e-01]
 [ 0.00000000e+00  5.00000000e-01  6.66666667e-01  0.00000000e+00
   3.99913420e-01  0.00000000e+00  5.00000000e-01  6.17948718e-01
   0.00000000e+00  3.81654135e-01]
 [ 0.00000000e+00  5.00000000e-01  6.01282051e-01  0.00000000e+00
   3.75338346e-01  0.00000000e+00  5.00000000e-01  6.74358974e-01
   0.00000000e+00  4.02727273e-01]
 [ 0.00000000e+00  5.00000000e-01  5.92948718e-01  0.00000000e+00
   3.72180451e-01  0.00000000e+00  5.00000000e-01  5.85256410e-01
   0.00000000e+00  3.69085213e-01]
 [ 0.00000000e+00  5.00000000e-01  8.45512821e-01  0.00000000e+00
   4.58053360e-01  0.00000000e+00  5.00000000e-01  5.92948718e-01
   0.00000000e+00  3.72180451e-01]
 [ 0.00000000e+00  5.00000000e-01  6.91025641e-01  0.00000000e+00
   4.08441558e-01  0.00000000e+00  5.00000000e-01  5.44871795e-01
   0.00000000e+00  3.52368421e-01]
 [ 0.00000000e+00  5.00000000e-01  6.51282051e-01  0.00000000e+00
   3.94285714e-01  0.00000000e+00  5.00000000e-01  6.26282051e-01
   0.00000000e+00  3.84812030e-01]
 [ 0.00000000e+00  5.00000000e-01  7.80769231e-01  0.00000000e+00
   4.38226990e-01 -4.40199336e-02  4.77380952e-01  4.73076923e-01
   7.52740374e-02  3.41102757e-01]
 [-6.61290323e-02  4.67857143e-01  4.86538462e-01  0.00000000e+00
   3.26078431e-01  0.00000000e+00  5.00000000e-01  6.42948718e-01
   0.00000000e+00  3.91127820e-01]
 [ 0.00000000e+00  5.00000000e-01  5.85256410e-01  0.00000000e+00
   3.69085213e-01  0.00000000e+00  5.00000000e-01  7.48076923e-01
   0.00000000e+00  4.27865613e-01]
 [ 0.00000000e+00  5.00000000e-01  5.28205128e-01  0.00000000e+00
   3.45350877e-01  1.59616170e-01  5.75714286e-01  6.17948718e-01
   3.42556012e-01  5.05108851e-01]
 [ 0.00000000e+00  5.00000000e-01  5.69871795e-01  0.00000000e+00
   3.62894737e-01  3.80111193e-01  6.90476190e-01  6.91025641e-01
   6.60784437e-01  6.77350427e-01]
 [ 0.00000000e+00  5.00000000e-01  5.36538462e-01  0.00000000e+00
   3.48859649e-01  2.56728794e-01  6.23809524e-01  6.42307692e-01
   5.58576849e-01  6.02861811e-01]
 [ 0.00000000e+00  5.00000000e-01  6.91025641e-01  0.00000000e+00
   4.08441558e-01  4.59184888e-01  7.28571429e-01  7.33333333e-01
   7.08140385e-01  7.21765946e-01]
 [ 0.00000000e+00  5.00000000e-01  6.51282051e-01  0.00000000e+00
   3.94285714e-01  0.00000000e+00  5.00000000e-01  6.26282051e-01
   0.00000000e+00  3.84812030e-01]
 [ 0.00000000e+00  5.00000000e-01  6.34615385e-01  0.00000000e+00
   3.87969925e-01  0.00000000e+00  5.00000000e-01  5.44871795e-01
   0.00000000e+00  3.52368421e-01]
 [ 9.13204225e-02  5.41607143e-01  6.41666667e-01  1.70793270e-01
   4.56721215e-01  0.00000000e+00  5.00000000e-01  6.34615385e-01
   0.00000000e+00  3.87969925e-01]]
SVM mean:
[0.06936668 0.53255886 0.63681624 0.12371264 0.43628467 0.10892748
 0.55355357 0.63818376 0.20288429 0.46853923]
---------------------------
---------------------------
GBM performance:
[[ 0.51037083  0.76404762  0.76346154  0.73509531  0.75315268  0.12663906
   0.55055556  0.75705128  0.22412259  0.51942343]
 [ 0.29716237  0.64785714  0.65705128  0.64288023  0.64270202  0.41513058
   0.69517857  0.72307692  0.6601307   0.68611711]
 [ 0.54205409  0.7647619   0.78653846  0.73077858  0.75988679  0.32999004
   0.64619048  0.65897436  0.56418422  0.62040702]
 [ 0.2782293   0.62833333  0.64230769  0.60054837  0.62500556  0.02640643
   0.51319444  0.69038462  0.06236096  0.43505126]
 [ 0.48583338  0.72946429  0.7724359   0.71449388  0.73750792  0.36098722
   0.68833333  0.69230769  0.67499464  0.68354298]
 [ 0.35190104  0.67619048  0.67564103  0.66337739  0.6657094   0.4977451
   0.74738095  0.75064103  0.73727546  0.73349758]
 [ 0.2271332   0.61011905  0.64294872  0.55810932  0.59830051  0.24933381
   0.64166667  0.64166667  0.59011989  0.63807193]
 [ 0.72673338  0.85138889  0.88589744  0.84342914  0.86120479  0.47295668
   0.71857143  0.76346154  0.65050936  0.71365792]
 [ 0.12094315  0.57222222  0.69166667  0.33082282  0.5407598   0.14594344
   0.56458333  0.70833333  0.25542574  0.52116389]
 [ 0.22633572  0.62880952  0.63333333  0.58020211  0.61322327  0.23370985
   0.61380952  0.62179487  0.58325494  0.60461226]
 [ 0.00136022  0.51303571  0.56089744  0.36346259  0.48693721  0.34610193
   0.65089286  0.69935897  0.62325162  0.65099415]
 [ 0.45878315  0.73392857  0.76346154  0.69360822  0.72616717  0.35677177
   0.66178571  0.70769231  0.58912402  0.65271334]
 [ 0.35852715  0.64809524  0.69935897  0.53135739  0.62658859  0.17356018
   0.57333333  0.59935897  0.532108    0.55742254]
 [ 0.07036199  0.52625     0.66025641  0.14472136  0.46146617  0.34674605
   0.6802381   0.68397436  0.64553604  0.66608148]
 [ 0.04175007  0.50444444  0.64230769  0.12813219  0.44838507  0.20441123
   0.57696429  0.65961538  0.39871505  0.53939813]
 [ 0.18041808  0.5875      0.66730769  0.38882774  0.54217124  0.27333554
   0.63333333  0.74038462  0.51394581  0.62759939]
 [ 0.56850859  0.78125     0.79615385  0.7636958   0.77989987  0.2932456
   0.65220238  0.68910256  0.54388364  0.62682232]
 [ 0.09        0.53590909  0.83782051  0.14142136  0.52156973  0.34639395
   0.67285714  0.69679487  0.62965357  0.66701689]
 [ 0.22758813  0.60069444  0.72435897  0.44409025  0.58774309  0.45204927
   0.72214286  0.73782051  0.69094284  0.71645024]
 [ 0.27286624  0.6125      0.69935897  0.48233524  0.60647575  0.1149817
   0.55321429  0.64358974  0.35073071  0.51826404]
 [-0.01304348  0.495       0.77307692  0.          0.43565782 -0.01247181
   0.49285714  0.49038462  0.43190171  0.4703697 ]
 [ 0.34720377  0.66785714  0.66346154  0.6540995   0.65545982  0.22555814
   0.615       0.68205128  0.49198382  0.59461681]
 [ 0.0606321   0.52797619  0.57820513  0.37579225  0.48340351  0.12919255
   0.56111111  0.7724359   0.22763819  0.52837573]
 [ 0.46775688  0.76190476  0.75641026  0.75533219  0.75468698  0.27943254
   0.64428571  0.65961538  0.61551029  0.64171898]
 [ 0.3001442   0.64238095  0.675       0.58885042  0.63301853  0.44411495
   0.72261905  0.72371795  0.72361691  0.72002997]
 [ 0.26194869  0.62809524  0.64358974  0.54608573  0.60385545  0.40392264
   0.69952381  0.70897436  0.67791967  0.69395573]
 [ 0.2963893   0.62916667  0.75705128  0.46331988  0.6165477   0.41257345
   0.70714286  0.70641026  0.69506939  0.70105839]
 [-0.08434874  0.4625      0.57692308  0.13282974  0.40697645  0.36252818
   0.65571429  0.71730769  0.57929697  0.65688271]
 [ 0.39305833  0.7         0.76538462  0.64334896  0.70455483  0.39160853
   0.68666667  0.69871795  0.65965027  0.67039811]
 [ 0.4915449   0.73142857  0.75320513  0.72683557  0.7296697   0.34908386
   0.63196429  0.70705128  0.58094453  0.61987463]]
GBM mean:
[0.28527153 0.63877038 0.70482906 0.51226278 0.62028958 0.29173275
 0.63911045 0.69106838 0.54012672 0.62251962]
---------------------------
---------------------------
BDDAE performance:
[[-0.07113754  0.46410256  0.468       0.41236256  0.44140775  0.09433162
   0.54780702  0.72        0.3201748   0.52302549]
 [ 0.24198139  0.62175325  0.62        0.61822398  0.61731508  0.55874286
   0.77666667  0.788       0.76375955  0.77496002]
 [ 0.01362659  0.50714286  0.52        0.46710065  0.49285181  0.24082309
   0.61955128  0.624       0.60557012  0.615109  ]
 [-0.14627674  0.42692308  0.432       0.35817481  0.40368035  0.09925316
   0.54227941  0.652       0.37265962  0.5263223 ]
 [ 0.35423763  0.67833333  0.688       0.65780249  0.67061847  0.16896284
   0.58525641  0.58        0.55552788  0.5679551 ]
 [ 0.68570505  0.84134615  0.844       0.83462917  0.8410102  -0.03650257
   0.48205128  0.484       0.45150248  0.46902277]
 [ 0.07949878  0.53833333  0.568       0.49637515  0.52922874 -0.06278263
   0.46826923  0.468       0.45551977  0.4620777 ]
 [ 0.43384408  0.70992647  0.772       0.66890204  0.70967832 -0.0021523
   0.49833333  0.524       0.46888367  0.49270906]
 [ 0.4911169   0.72022059  0.804       0.67097854  0.73627224  0.36149604
   0.65        0.776       0.53347935  0.65214395]
 [-0.02674072  0.48653846  0.488       0.47384605  0.48084903  0.16737201
   0.58301282  0.588       0.56357588  0.57630074]
 [ 0.01059942  0.50333333  0.564       0.38904397  0.47633945  0.22304342
   0.60166667  0.672       0.4394953   0.56362228]
 [-0.02835609  0.485       0.512       0.45746131  0.48055138  0.36282583
   0.68833333  0.68        0.68237375  0.675137  ]
 [ 0.02780946  0.51333333  0.536       0.48810022  0.50898416  0.38931314
   0.6961039   0.7         0.68509469  0.6909855 ]
 [ 0.09091702  0.54479167  0.604       0.45747013  0.53262491  0.22958047
   0.61442308  0.616       0.60405352  0.61005003]
 [ 0.06590967  0.53161765  0.624       0.42615381  0.52169474  0.16031034
   0.58        0.604       0.54307311  0.56977481]
 [ 0.22704781  0.60833333  0.656       0.50396544  0.58470986  0.17678444
   0.57389706  0.704       0.41014921  0.55727609]
 [ 0.48986069  0.76        0.744       0.7375037   0.73438048  0.2073678
   0.59333333  0.66        0.4786692   0.56772394]
 [ 0.10520367  0.55238095  0.792       0.29450107  0.54442179 -0.0325826
   0.485       0.544       0.31798246  0.44415433]
 [ 0.14046505  0.57095588  0.664       0.43690958  0.5538008   0.24585802
   0.62272727  0.632       0.59034857  0.61023409]
 [ 0.05686116  0.52569444  0.592       0.45205082  0.51421155  0.06075439
   0.52604167  0.608       0.42257043  0.51027712]
 [ 0.06642391  0.535       0.76        0.23130186  0.51570421  0.113271
   0.55673077  0.56        0.53970376  0.5502179 ]
 [ 0.09795433  0.54935897  0.548       0.53970979  0.54388557 -0.08839013
   0.46215278  0.576       0.13409535  0.40001145]
 [-0.17077374  0.41333333  0.436       0.36143956  0.40481408  0.4572078
   0.69824561  0.836       0.60728245  0.71988515]
 [ 0.16736085  0.58301282  0.588       0.55260553  0.57092606  0.26962786
   0.63344156  0.644       0.62588723  0.63355402]
 [ 0.07348643  0.53603896  0.56        0.46834972  0.51388377  0.09999678
   0.55032051  0.548       0.53152699  0.53961397]
 [ 0.16593325  0.58141026  0.588       0.55129856  0.57123224  0.16597628
   0.58173077  0.588       0.55102427  0.57020646]
 [ 0.40985793  0.69852941  0.752       0.67636495  0.70303808  0.65271558
   0.82467949  0.828       0.81520762  0.82335091]
 [ 0.01550608  0.50902778  0.552       0.46854974  0.50222939  0.32884745
   0.65763889  0.708       0.62433592  0.65931001]
 [-0.00723978  0.49652778  0.564       0.40612146  0.48618038  0.3784885
   0.68409091  0.704       0.6550007   0.68032451]
 [ 0.11553044  0.555       0.592       0.51340258  0.54852796  0.07151838
   0.53020833  0.604       0.44484565  0.51756812]]
BDDAE mean:
[0.1392071  0.56824333 0.6144     0.50235664 0.55783509 0.20206863
 0.59713311 0.64066667 0.52644578 0.58509679]
---------------------------
---------------------------
DUMMY performance:
[[0.         0.5        0.53653846 0.         0.34885965 0.
  0.5        0.74807692 0.         0.42786561]
 [0.         0.5        0.55320513 0.         0.35587719 0.
  0.5        0.61794872 0.         0.38165414]
 [0.         0.5        0.56153846 0.         0.35938596 0.
  0.5        0.51987179 0.         0.34184211]
 [0.         0.5        0.53653846 0.         0.34885965 0.
  0.5        0.69102564 0.         0.40844156]
 [0.         0.5        0.61794872 0.         0.38165414 0.
  0.5        0.51987179 0.         0.34184211]
 [0.         0.5        0.48846154 0.         0.32807018 0.
  0.5        0.52820513 0.         0.34535088]
 [0.         0.5        0.58525641 0.         0.36908521 0.
  0.5        0.48846154 0.         0.32807018]
 [0.         0.5        0.67435897 0.         0.40272727 0.
  0.5        0.60961538 0.         0.37849624]
 [0.         0.5        0.68269231 0.         0.40558442 0.
  0.5        0.69102564 0.         0.40844156]
 [0.         0.5        0.51987179 0.         0.34184211 0.
  0.5        0.52820513 0.         0.34535088]
 [0.         0.5        0.59294872 0.         0.37218045 0.
  0.5        0.60961538 0.         0.37849624]
 [0.         0.5        0.60961538 0.         0.37849624 0.
  0.5        0.60961538 0.         0.37849624]
 [0.         0.5        0.58525641 0.         0.36908521 0.
  0.5        0.56153846 0.         0.35938596]
 [0.         0.5        0.65128205 0.         0.39428571 0.
  0.5        0.52820513 0.         0.34535088]
 [0.         0.5        0.66666667 0.         0.39991342 0.
  0.5        0.61794872 0.         0.38165414]
 [0.         0.5        0.60128205 0.         0.37533835 0.
  0.5        0.67435897 0.         0.40272727]
 [0.         0.5        0.59294872 0.         0.37218045 0.
  0.5        0.58525641 0.         0.36908521]
 [0.         0.5        0.84551282 0.         0.45805336 0.
  0.5        0.59294872 0.         0.37218045]
 [0.         0.5        0.69102564 0.         0.40844156 0.
  0.5        0.54487179 0.         0.35236842]
 [0.         0.5        0.65128205 0.         0.39428571 0.
  0.5        0.62628205 0.         0.38481203]
 [0.         0.5        0.78076923 0.         0.43822699 0.
  0.5        0.50384615 0.         0.33491228]
 [0.         0.5        0.51987179 0.         0.34184211 0.
  0.5        0.64294872 0.         0.39112782]
 [0.         0.5        0.58525641 0.         0.36908521 0.
  0.5        0.74807692 0.         0.42786561]
 [0.         0.5        0.52820513 0.         0.34535088 0.
  0.5        0.55320513 0.         0.35587719]
 [0.         0.5        0.56987179 0.         0.36289474 0.
  0.5        0.48846154 0.         0.32807018]
 [0.         0.5        0.53653846 0.         0.34885965 0.
  0.5        0.53653846 0.         0.34885965]
 [0.         0.5        0.69102564 0.         0.40844156 0.
  0.5        0.51153846 0.         0.33833333]
 [0.         0.5        0.65128205 0.         0.39428571 0.
  0.5        0.62628205 0.         0.38481203]
 [0.         0.5        0.63461538 0.         0.38796992 0.
  0.5        0.54487179 0.         0.35236842]
 [0.         0.5        0.61794872 0.         0.38165414 0.
  0.5        0.63461538 0.         0.38796992]]
DUMMY mean:
[0.         0.5        0.61198718 0.         0.3780939  0.
 0.5        0.58944444 0.         0.36940362]
---------------------------
Current folder: C:\Users\Javier\Dropbox\c_sldl_1_2_29
-------------------------------------
----- RESULTS from .csv files ------
-------------------------------------
---------------------------
ALG Means: 
-rows: alg : KNN = 0; DT = 1; RF = 2; SVM = 3; GBM = 4; BDDAE = 5; DUMMY = 5
columns:
'val_cohen','val_uar', 'val_acc', 'val_gm',  'val_f1',  'aro_cohen','aro_uar', 'aro_acc', 'aro_gm',  'aro_f1'
-------------------------------------------------------------
  v_c   v_u   v_a   v_g   v_f1  a_c   a_u   a_a   a_g   a_f1
[[0.32  0.657 0.7   0.592 0.649 0.344 0.671 0.699 0.628 0.663]
 [0.276 0.642 0.669 0.608 0.633 0.266 0.637 0.655 0.589 0.627]
 [0.318 0.658 0.695 0.618 0.65  0.34  0.667 0.691 0.645 0.661]
 [0.069 0.533 0.637 0.124 0.436 0.109 0.554 0.638 0.203 0.469]
 [0.285 0.639 0.705 0.512 0.62  0.292 0.639 0.691 0.54  0.623]
 [0.139 0.568 0.614 0.502 0.558 0.202 0.597 0.641 0.526 0.585]
 [0.    0.5   0.612 0.    0.378 0.    0.5   0.589 0.    0.369]]
-------------------------------------------------------------
Standard Deviation of each metric:
[[0.199 0.098 0.088 0.159 0.104 0.144 0.073 0.07  0.101 0.075]
 [0.177 0.097 0.094 0.115 0.099 0.157 0.074 0.073 0.116 0.078]
 [0.187 0.091 0.083 0.148 0.095 0.138 0.056 0.059 0.097 0.057]
 [0.148 0.069 0.085 0.223 0.108 0.167 0.083 0.067 0.284 0.129]
 [0.193 0.096 0.077 0.221 0.113 0.13  0.065 0.055 0.165 0.077]
 [0.197 0.097 0.11  0.13  0.101 0.176 0.086 0.091 0.138 0.095]
 [0.    0.    0.077 0.    0.029 0.    0.    0.071 0.    0.028]]
-------------------------------------------------------------
std_dev/mean [percentage]:
[[ 62.  15.  13.  27.  16.  42.  11.  10.  16.  11.]
 [ 64.  15.  14.  19.  16.  59.  12.  11.  20.  12.]
 [ 59.  14.  12.  24.  15.  41.   8.   9.  15.   9.]
 [213.  13.  13. 180.  25. 153.  15.  10. 140.  28.]
 [ 68.  15.  11.  43.  18.  45.  10.   8.  31.  12.]
 [142.  17.  18.  26.  18.  87.  14.  14.  26.  16.]
 [  0.   0.  13.   0.   8.   0.   0.  12.   0.   8.]]
-------------------------------------
Current folder: C:\Users\Javier\Dropbox\c_sldl_1_2_29
-------------------------------------
----- RESULTS ------
-------------------------------------
Window size (sec):  10.0
step (sec):  10.0
overlap:  True
perc. of overlap:  0.0
overlap duration (sec):  0.0
Number of windows / instances:  123
Elapsed time: 437.0469830354055 minutes
Elapsed time: 7.284116383923425 hours
