2024-03-07 18:10:29.828242: I tensorflow/core/util/port.cc:113] oneDNN custom operations are on. You may see slightly different numerical results due to floating-point round-off errors from different computation orders. To turn them off, set the environment variable `TF_ENABLE_ONEDNN_OPTS=0`.
2024-03-07 18:10:33.311862: I tensorflow/core/util/port.cc:113] oneDNN custom operations are on. You may see slightly different numerical results due to floating-point round-off errors from different computation orders. To turn them off, set the environment variable `TF_ENABLE_ONEDNN_OPTS=0`.
2024-03-07 18:10:41.928599: I tensorflow/core/platform/cpu_feature_guard.cc:210] This TensorFlow binary is optimized to use available CPU instructions in performance-critical operations.
To enable the following instructions: AVX2 FMA, in other operations, rebuild TensorFlow with the appropriate compiler flags.
    
    
-------------------------------
participant:  1
-------------------------------
    
    
participant:  1
corriendo en PC gamer:
Window size (sec):  8.0
step (sec):  4.0
overlap:  True
perc. of overlap:  50.0
Nearest multiple of 16 to 8000 is: 8000
Nearest multiple of 16 to 4000 is: 4000
['gsr_chunks', 'ppg_chunks', 'val_chunks', 'aro_chunks', 'time_chunks', 'tag_chunks', 'video']
C:\Users\Javier\Dropbox\c_sldl_3_1_3\functions.py:880: FutureWarning: ChainedAssignmentError: behaviour will change in pandas 3.0!

---------Warning:---------
too few peak-peak intervals for (reliable) frequency domain measure computation, frequency output measures are still computed but treat them with caution!

HF is usually computed over a minimum of 1 minute of good signal. LF is usually computed over a minimum of 2 minutes of good signal.VLF is usually computed over a minimum of 5 minutes of good signal.The LF/HF ratio is usually computed over minimum 24 hours, although an absolute minimum of 5 min has also been suggested.

For more info see: 
Shaffer, F., Ginsberg, J.P. (2017), An Overview of Heart Rate Variability Metrics and Norms.

Task Force of Pacing and Electrophysiology (1996), Heart Rate Variability, in: European Heart Journal, vol.17, issue 3, pp354-381

This warning will not repeat
  warnings.warn(msg, UserWarning)
C:\Users\Javier\AppData\Local\Packages\PythonSoftwareFoundation.Python.3.12_qbz5n2kfra8p0\LocalCache\local-packages\Python312\site-packages\heartpy\analysis.py:677: UserWarning: 
The maximal number of iterations maxit (set to 20 by the program)
allowed for finding a smoothing spline with fp=s has been reached: s
too small.
There is an approximation returned but the corresponding weighted sum
of squared residuals does not satisfy the condition abs(fp-s)/s < tol.
  interp = UnivariateSpline(x, rrlist, k=3)
C:\Users\Javier\AppData\Local\Packages\PythonSoftwareFoundation.Python.3.12_qbz5n2kfra8p0\LocalCache\local-packages\Python312\site-packages\heartpy\analysis.py:532: UserWarning: 
The maximal number of iterations maxit (set to 20 by the program)
allowed for finding a smoothing spline with fp=s has been reached: s
too small.
There is an approximation returned but the corresponding weighted sum
of squared residuals does not satisfy the condition abs(fp-s)/s < tol.
  interpolation_func = UnivariateSpline(rr_x, rr_list, k=degree_smoothing_spline)
Class Imbalance test (arousal)....
Multiclass distribution
Class=1, n=201 (65.686%)
Class=0, n=105 (34.314%)
Class Imbalance test (valence)....
Multiclass distribution
Class=0, n=117 (38.235%)
Class=1, n=189 (61.765%)
------------- Evaluating model --------------
------------- Evaluating model --------------
------------- Evaluating model --------------
------------- Evaluating model --------------
------------- Evaluating model --------------
arousal and valece = ok
------------- Evaluating model --------------
-------------------------------------
-------------------------------------
participant:  30
-------------------------------------
----- RESULTS ------
-------------------------------------
Window size (sec):  8.0
step (sec):  4.0
overlap:  True
perc. of overlap:  50.0
Number of windows / instances:  306
-rows: alg : KNN = 0; DT = 1; RF = 2; SVM = 3; GBM = 4; BDDAE = 5; DUMMY = 5
columns:
'val_cohen','val_uar', 'val_acc', 'val_gm',  'val_f1',  'aro_cohen','aro_uar', 'aro_acc', 'aro_gm',  'aro_f1'
-------------------------------------------------------------
  v_c   v_u   v_a   v_g   v_f1  a_c   a_u   a_a   a_g   a_f1
[[0.409 0.702 0.722 0.694 0.703 0.318 0.657 0.699 0.633 0.655]
 [0.461 0.717 0.732 0.73  0.715 0.36  0.681 0.722 0.653 0.685]
 [0.365 0.695 0.722 0.674 0.695 0.307 0.691 0.732 0.678 0.688]
 [0.    0.5   0.618 0.    0.382 0.    0.5   0.657 0.    0.396]
 [0.228 0.601 0.686 0.458 0.57  0.093 0.541 0.664 0.273 0.491]
 [0.    0.    0.    0.    0.    0.    0.    0.    0.    0.   ]
 [0.    0.5   0.618 0.    0.382 0.    0.5   0.657 0.    0.396]]
participant performance loaded
    
    
-------------------------------
LAST participant's saved data: 
30
-------------------------------
    
    
---------------------------
KNN performance:
[[ 0.34334991  0.67136191  0.67655914  0.66350118  0.66914545  0.52740098
   0.75423137  0.82978495  0.73341049  0.76195131]
 [ 0.26970996  0.63721113  0.63053763  0.62859596  0.6286637   0.40254535
   0.69643806  0.72870968  0.67096745  0.6954599 ]
 [ 0.54725418  0.76103801  0.79784946  0.73492474  0.76768414  0.36436508
   0.68169643  0.68301075  0.67788374  0.68085028]
 [ 0.33610472  0.66735119  0.67010753  0.65832037  0.66452806  0.53173711
   0.76553746  0.76731183  0.7620929   0.76487489]
 [ 0.33707397  0.66545209  0.68956989  0.64888305  0.66526157  0.1087399
   0.554375    0.55569892  0.54646574  0.5510508 ]
 [ 0.57477865  0.77119048  0.82967742  0.74688981  0.78449463  0.47537413
   0.73486842  0.75462366  0.72577332  0.7364052 ]
 [ 0.26817074  0.62944444  0.7127957   0.54352906  0.62027236  0.36158278
   0.67063492  0.73827957  0.63639682  0.67649284]
 [ 0.31716061  0.65857143  0.65989247  0.65183318  0.65612968  0.16586409
   0.58316702  0.58505376  0.57800724  0.58061414]
 [ 0.07538159  0.53640351  0.56903226  0.50950662  0.53442997  0.5936386
   0.78441296  0.81354839  0.76696857  0.79309482]
 [ 0.69573817  0.84895003  0.85602151  0.84491497  0.84703632  0.36872416
   0.68151249  0.70268817  0.66660991  0.68059754]
 [ 0.22074316  0.60938375  0.62107527  0.6025132   0.60961343  0.36728286
   0.6805771   0.69193548  0.67163243  0.6813398 ]
 [        nan         nan         nan         nan         nan         nan
          nan         nan         nan         nan]
 [ 0.23920141  0.60730159  0.7055914   0.53389039  0.60758088  0.24220271
   0.61897927  0.65010753  0.6029489   0.61925682]
 [ 0.43540996  0.71432749  0.73182796  0.70054783  0.7143658   0.41539089
   0.70106061  0.74892473  0.6724137   0.70244831]
 [ 0.61081382  0.80868527  0.80774194  0.80596784  0.80409292  0.32248157
   0.6612798   0.67688172  0.64527484  0.65708102]
 [ 0.16339772  0.56211538  0.85301075  0.29812341  0.56789441  0.29223219
   0.64940958  0.65462366  0.64125987  0.64262845]
 [ 0.35587923  0.66270563  0.74150538  0.62195112  0.67312596  0.47524138
   0.73579307  0.74215054  0.73014269  0.73606466]
 [ 0.23782237  0.61624459  0.67591398  0.57912197  0.61528396  0.1971788
   0.5920933   0.64989247  0.54280596  0.58922829]
 [ 0.07189512  0.52888199  0.72860215  0.32627754  0.51840046 -0.01047261
   0.49479167  0.49397849  0.48607197  0.49007147]
 [ 0.23631718  0.61833333  0.61763441  0.61079416  0.61427504  0.2789071
   0.63318182  0.68946237  0.59714283  0.63501429]
 [ 0.02597756  0.51283937  0.53860215  0.47388855  0.50532515  0.17041391
   0.57836792  0.70537634  0.49573289  0.57795814]
 [ 0.43096758  0.71291209  0.72204301  0.70321732  0.71267902  0.5558441
   0.778125    0.77784946  0.77642335  0.77727851]
 [ 0.2193968   0.60907563  0.61526882  0.59531239  0.60505411  0.19636531
   0.59984558  0.60139785  0.59375894  0.59532973]
 [ 0.48402665  0.72934343  0.79064516  0.70628687  0.73962693  0.4880829
   0.74395833  0.74430108  0.73756283  0.74149239]
 [ 0.1883953   0.59126396  0.63053763  0.56969818  0.59221464  0.42735924
   0.70901934  0.72849462  0.69936802  0.7117736 ]
 [ 0.29832361  0.64256778  0.69043011  0.6020213   0.64131755  0.24538651
   0.61993172  0.63387097  0.59299204  0.6140024 ]
 [ 0.40876121  0.701874    0.72247312  0.69389727  0.70303287  0.31847433
   0.65729437  0.69935484  0.63279109  0.65511631]]
KNN mean:
[0.3227712  0.65672421 0.70326716 0.61747724 0.65621266 0.34162859
 0.66771472 0.69412738 0.64934225 0.66721061]
---------------------------
---------------------------
DT performance:
[[ 0.38436849  0.68768988  0.68677419  0.69506558  0.68250874  0.40311699
   0.72225673  0.79430108  0.70828313  0.7161632 ]
 [ 0.26155441  0.64409139  0.64591398  0.63708946  0.64120715  0.45100495
   0.74096225  0.75817204  0.71738564  0.74021709]
 [ 0.34653724  0.68048246  0.69645161  0.66498723  0.67529733  0.29380133
   0.66339286  0.66397849  0.6500361   0.66199761]
 [ 0.41713306  0.69485119  0.69548387  0.69918016  0.69252797  0.42962873
   0.72621324  0.7255914   0.7175133   0.72387944]
 [ 0.22510548  0.62156433  0.63752688  0.60356395  0.61817235  0.1965093
   0.58479167  0.58537634  0.58323695  0.57961812]
 [ 0.44342657  0.74329365  0.76741935  0.72352581  0.73830253  0.53613074
   0.79290936  0.80354839  0.75768236  0.79233917]
 [ 0.2080838   0.62000722  0.66698925  0.61366428  0.61533226  0.33214423
   0.66785714  0.71236559  0.64050677  0.66156273]
 [ 0.30093385  0.63071429  0.63096774  0.63238151  0.6265427   0.12760543
   0.5404937   0.54215054  0.5568439   0.53642312]
 [ 0.04229447  0.52112573  0.54215054  0.51518137  0.51829103  0.43775093
   0.7272211   0.72817204  0.69411262  0.71854815]
 [ 0.59885264  0.80300372  0.81043011  0.78564111  0.80006781  0.38463469
   0.67830941  0.69688172  0.68415597  0.67757397]
 [ 0.1548824   0.58211592  0.58763441  0.56828994  0.57682947  0.28727072
   0.65591826  0.65580645  0.65349336  0.64864604]
 [ 0.05086683  0.52068182  0.56204301  0.51530396  0.51621954  0.13929879
   0.58179447  0.58473118  0.58307068  0.58082019]
 [ 0.19236411  0.58206349  0.63376344  0.56053554  0.57962375  0.38354765
   0.67172249  0.69849462  0.66888969  0.66790834]
 [ 0.36150237  0.68466599  0.69655914  0.68062637  0.68457345  0.32792338
   0.66735931  0.70365591  0.62326412  0.66095343]
 [ 0.56650956  0.77908497  0.78397849  0.7667405   0.77736098  0.4287631
   0.72772155  0.7383871   0.71897796  0.7262114 ]
 [ 0.32308824  0.68133903  0.84709677  0.61723313  0.6905067   0.41955889
   0.71575011  0.72860215  0.6933095   0.71432875]
 [ 0.18539908  0.59349928  0.65698925  0.59064504  0.59087723  0.42037289
   0.70043027  0.70344086  0.69887374  0.69711246]
 [ 0.14195614  0.56689394  0.61139785  0.55811008  0.56381764  0.31606122
   0.6541866   0.6727957   0.64824728  0.65069874]
 [ 0.0043883   0.504956    0.63075269  0.44961344  0.49973556 -0.04371524
   0.45270833  0.45430108  0.46438863  0.44636343]
 [ 0.0790751   0.54958333  0.54913978  0.51862317  0.54669422  0.18560708
   0.55681818  0.60129032  0.55963705  0.55361736]
 [ 0.0686238   0.539863    0.55182796  0.51439028  0.53811563  0.09946845
   0.56305171  0.65935484  0.52295629  0.5568435 ]
 [ 0.2790759   0.62655139  0.62978495  0.63731339  0.62148813  0.48909002
   0.72479167  0.72548387  0.73242375  0.72411126]
 [ 0.14919664  0.56535189  0.56903226  0.56824763  0.55703776  0.31223481
   0.61349386  0.62172043  0.65238496  0.61193199]
 [ 0.34319399  0.65458874  0.71225806  0.62333113  0.65687386  0.41574102
   0.7075      0.70795699  0.68693214  0.70656283]
 [ 0.08002185  0.5500638   0.57849462  0.54076766  0.54543864  0.42339102
   0.69144175  0.70612903  0.68326724  0.69146706]
 [ 0.2126762   0.59963317  0.62698925  0.58412223  0.59609563  0.32203178
   0.66664916  0.66924731  0.64564891  0.66458078]
 [ 0.46094335  0.71729798  0.73193548  0.729999    0.71534179  0.36001025
   0.68114719  0.72236559  0.65264502  0.68531195]]
DT mean:
[0.25489088 0.62759473 0.65702907 0.614599   0.62462518 0.32885123
 0.66210712 0.6801593  0.65178397 0.65910341]
---------------------------
---------------------------
RF performance:
[[0.3155218  0.71878434 0.72290323 0.65805467 0.71620973 0.38891477
  0.70625    0.79774194 0.70046171 0.71477107]
 [0.33927792 0.66407563 0.66623656 0.66357011 0.66128741 0.3833207
  0.68352605 0.69849462 0.68934062 0.679696  ]
 [0.3780134  0.68179825 0.71258065 0.71608407 0.6826715  0.42953998
  0.69755952 0.69913978 0.6479315  0.69315361]
 [0.4366366  0.73255952 0.73516129 0.72481789 0.7319365  0.47047406
  0.77071604 0.77365591 0.71423353 0.76854796]
 [0.29165361 0.68649348 0.7027957  0.66610743 0.68658094 0.16940254
  0.57166667 0.57193548 0.58603268 0.5688368 ]
 [0.50544242 0.74678571 0.79043011 0.75024949 0.75166453 0.51137483
  0.73099415 0.74827957 0.73774312 0.7293506 ]
 [0.23761395 0.5979798  0.68946237 0.57371614 0.59652343 0.25210725
  0.64992063 0.69967742 0.59321746 0.64758289]
 [0.31068279 0.63452381 0.63387097 0.66099861 0.63083442 0.28471547
  0.60517332 0.61129032 0.62283413 0.60151265]
 [0.17657599 0.52733918 0.56182796 0.49321952 0.5230817  0.42531129
  0.73205691 0.74870968 0.71496018 0.73463308]
 [0.60062754 0.82299973 0.83010753 0.79866669 0.82026615 0.36900702
  0.70314992 0.72849462 0.6998193  0.70656288]
 [0.06400971 0.58256841 0.59462366 0.4890265  0.57724146 0.13399727
  0.62994505 0.64032258 0.58862172 0.62854928]
 [0.0918284  0.57295455 0.6372043  0.57331195 0.56788211 0.16422435
  0.52382003 0.52612903 0.58371803 0.51873082]
 [0.23228608 0.62404762 0.69935484 0.66253656 0.62392963 0.29326614
  0.6911882  0.71913978 0.62936388 0.692595  ]
 [0.33818718 0.64356163 0.65967742 0.7041433  0.6416642  0.42628675
  0.71814935 0.74892473 0.68076284 0.7179131 ]
 [0.6499949  0.82038084 0.82010753 0.8172486  0.81552301 0.40809396
  0.71860099 0.73849462 0.73475785 0.71779433]
 [0.18716847 0.59886752 0.84344086 0.36980241 0.6057093  0.35679365
  0.67204791 0.68634409 0.64454063 0.67139208]
 [0.22379285 0.64379509 0.72182796 0.59986975 0.64664027 0.44394012
  0.71965498 0.72623656 0.71057762 0.71727033]
 [0.27180035 0.65362554 0.70591398 0.65225276 0.65205502 0.34978778
  0.62633573 0.67225806 0.6480177  0.62690457]
 [0.04336239 0.49202899 0.67978495 0.36017405 0.47756478 0.13832319
  0.51625    0.51602151 0.5441007  0.5079274 ]
 [0.2214484  0.600625   0.60064516 0.55400869 0.59699136 0.33388922
  0.61863636 0.66741935 0.58141603 0.62013067]
 [0.05065459 0.53164279 0.5555914  0.52229565 0.52813764 0.0779699
  0.59113966 0.71860215 0.5066916  0.5954571 ]
 [0.42191265 0.66145766 0.66591398 0.67100497 0.65973042 0.51009858
  0.77520833 0.77451613 0.73885311 0.77403763]
 [0.1564852  0.59628326 0.60150538 0.55579771 0.59545207 0.38047197
  0.66671156 0.67064516 0.64510732 0.66013047]
 [0.3762753  0.66921356 0.73204301 0.63565393 0.67187739 0.48797141
  0.72854167 0.7283871  0.75014956 0.72611239]
 [0.06305254 0.55411483 0.62107527 0.51100976 0.5496338  0.37890948
  0.69502362 0.70913978 0.70461756 0.6939164 ]
 [0.25036787 0.63066587 0.66032258 0.61842171 0.62404609 0.29071172
  0.65265231 0.65698925 0.63696355 0.65012982]
 [0.36458216 0.6952286  0.72236559 0.67394824 0.69517259 0.3069876
  0.69116883 0.73182796 0.67814154 0.68759778]]
RF mean:
[0.28145389 0.64386671 0.6876583  0.6176293  0.64186324 0.33947744
 0.6698551  0.69291916 0.65603613 0.66856432]
---------------------------
---------------------------
SVM performance:
[[ 0.20631939  0.59816782  0.62784946  0.51248047  0.57099114  0.
   0.5         0.75505376  0.          0.43018423]
 [ 0.22606326  0.61231618  0.61731183  0.60336227  0.60993632  0.08082932
   0.53458931  0.63408602  0.27143042  0.46541346]
 [ 0.34802716  0.65752924  0.72612903  0.55525834  0.64205267  0.40291527
   0.70092262  0.70290323  0.69115821  0.69776709]
 [ 0.34025362  0.66857143  0.67397849  0.64481419  0.66040323  0.37152948
   0.68042192  0.69591398  0.62010443  0.66133676]
 [ 0.05274532  0.52289699  0.60784946  0.25023751  0.44974472  0.0545771
   0.52729167  0.52666667  0.51431567  0.52049291]
 [ 0.54414337  0.73761905  0.83032258  0.68358943  0.76123024  0.31602613
   0.64802632  0.6955914   0.60321124  0.64716771]
 [ 0.          0.5         0.69290323  0.          0.40926321  0.
   0.5         0.68645161  0.          0.40701357]
 [ 0.16921326  0.58324405  0.5911828   0.50724083  0.55023863  0.23128936
   0.61512605  0.61806452  0.60036171  0.60894403]
 [ 0.          0.5         0.60774194  0.          0.378       0.40377299
   0.68666779  0.7355914   0.63153374  0.68592845]
 [ 0.67626422  0.84633174  0.8427957   0.84303522  0.83669459  0.21455928
   0.59286284  0.67978495  0.43631276  0.5561925 ]
 [-0.01306533  0.49411765  0.56193548  0.          0.35961608  0.01822808
   0.50832256  0.57516129  0.06477824  0.3825666 ]
 [        nan         nan         nan         nan         nan         nan
          nan         nan         nan         nan]
 [ 0.          0.5         0.67978495  0.          0.40466063  0.
   0.5         0.62752688  0.          0.38553341]
 [ 0.          0.5         0.5916129   0.          0.37167347  0.12368941
   0.55034632  0.69623656  0.24374192  0.49305902]
 [ 0.63258189  0.81536576  0.82053763  0.81152018  0.81508781  0.07230414
   0.5311291   0.61462366  0.23757975  0.44112247]
 [ 0.          0.5         0.85634409  0.          0.46127387  0.05416168
   0.52446019  0.6044086   0.18496344  0.44013023]
 [ 0.          0.5         0.68967742  0.          0.40813839  0.45500891
   0.7250303   0.73483871  0.71581691  0.72512743]
 [ 0.          0.5         0.66989247  0.          0.40113876  0.
   0.5         0.63397849  0.          0.38796479]
 [ 0.          0.5         0.76473118  0.          0.43331555  0.07770052
   0.53895833  0.53333333  0.47032564  0.50288853]
 [ 0.13805191  0.569375    0.56827957  0.51248345  0.54075965  0.
   0.5         0.65376344  0.          0.39529412]
 [ 0.          0.5         0.58172043  0.          0.36774859  0.
   0.5         0.73204301  0.          0.42262001]
 [ 0.32670908  0.65833872  0.67946237  0.62246809  0.65179713  0.60142949
   0.80104167  0.80064516  0.79986696  0.80029574]
 [ 0.02334096  0.51071429  0.5488172   0.08017837  0.37251696  0.13349067
   0.5630288   0.59806452  0.477735    0.53634006]
 [ 0.          0.5         0.68967742  0.          0.40813839  0.53494339
   0.76770833  0.76784946  0.75902408  0.76417335]
 [ 0.          0.5         0.63397849  0.          0.38796479  0.2767544
   0.62407782  0.68913978  0.52233361  0.60615556]
 [ 0.          0.5         0.62430108  0.          0.38431773  0.
   0.5         0.54236559  0.          0.35163043]
 [ 0.          0.5         0.61774194  0.          0.38182653  0.
   0.5         0.65698925  0.          0.39646305]]
SVM mean:
[0.14117877 0.56825338 0.66909843 0.25487186 0.50071266 0.17012345
 0.58153892 0.6611952  0.34017668 0.52737713]
---------------------------
---------------------------
GBM performance:
[[ 4.20835439e-01  7.08674047e-01  7.16236559e-01  7.02104451e-01
   7.07754794e-01  2.92182496e-01  6.24042443e-01  8.04408602e-01
   4.72361070e-01  6.33521958e-01]
 [ 3.36776675e-01  6.65808824e-01  6.66774194e-01  6.55714118e-01
   6.60605863e-01  4.59460433e-01  7.10705742e-01  7.67526882e-01
   6.61103921e-01  7.17127328e-01]
 [ 4.71997084e-01  7.20614035e-01  7.68494624e-01  6.74990770e-01
   7.24294787e-01  4.62571782e-01  7.30684524e-01  7.32365591e-01
   7.24731935e-01  7.29239070e-01]
 [ 4.61077107e-01  7.29672619e-01  7.31827957e-01  7.24434998e-01
   7.28582539e-01  5.08605025e-01  7.52858894e-01  7.57634409e-01
   7.40427358e-01  7.49966507e-01]
 [ 3.73975061e-01  6.74836932e-01  7.28494624e-01  6.17477070e-01
   6.75054552e-01  1.86290656e-01  5.93333333e-01  5.91827957e-01
   5.70948095e-01  5.81569099e-01]
 [ 5.06237493e-01  7.20238095e-01  8.17204301e-01  6.58934269e-01
   7.40261234e-01  4.16754807e-01  6.93494152e-01  7.54408602e-01
   6.18213038e-01  6.90237044e-01]
 [ 1.13707823e-01  5.45533911e-01  7.12688172e-01  2.52319027e-01
   5.03730302e-01 -4.09044452e-03  4.98095238e-01  6.76559140e-01
   6.32455532e-02  4.20776241e-01]
 [ 3.33265482e-01  6.69464286e-01  6.72795699e-01  6.47311221e-01
   6.63652735e-01  3.01644334e-01  6.45141807e-01  6.53225806e-01
   6.27491204e-01  6.41004187e-01]
 [ 1.25929995e-01  5.54751462e-01  6.43763441e-01  3.24476156e-01
   4.97195144e-01  4.53815578e-01  7.21496851e-01  7.61182796e-01
   6.82852175e-01  7.23820566e-01]
 [ 5.73340158e-01  7.72886762e-01  8.10860215e-01  7.46209325e-01
   7.80501419e-01  2.74677829e-01  6.22321903e-01  6.99032258e-01
   5.01815332e-01  5.99065870e-01]
 [ 1.51656427e-01  5.71322632e-01  6.20860215e-01  4.25711468e-01
   5.24312093e-01  3.06814099e-01  6.42427997e-01  6.85913978e-01
   5.48908189e-01  6.19167547e-01]
 [            nan             nan             nan             nan
              nan             nan             nan             nan
              nan             nan]
 [ 1.37464850e-01  5.54523810e-01  7.09354839e-01  3.03005309e-01
   5.12458891e-01  2.40538694e-01  6.07986443e-01  6.89892473e-01
   4.81130366e-01  5.90310508e-01]
 [ 1.93173419e-01  5.83012821e-01  6.46989247e-01  4.38102066e-01
   5.47235912e-01  2.54276832e-01  6.10487013e-01  7.16344086e-01
   4.98271026e-01  6.03323913e-01]
 [ 6.39133373e-01  8.16270739e-01  8.20430108e-01  8.16325929e-01
   8.15017091e-01  6.13591594e-01  8.07394287e-01  8.14086022e-01
   8.02089588e-01  8.05488960e-01]
 [ 8.19083754e-02  5.29301994e-01  8.56344086e-01  1.43786698e-01
   5.14197543e-01  4.28596082e-01  7.02850877e-01  7.45268817e-01
   6.54700248e-01  7.00499549e-01]
 [ 9.30463371e-05  5.10714286e-01  6.86129032e-01  1.18444198e-01
   4.44790562e-01  4.81761907e-01  7.29308743e-01  7.42150538e-01
   7.17607324e-01  7.31470458e-01]
 [ 1.99677248e-01  5.81612554e-01  7.15376344e-01  3.95833442e-01
   5.56680622e-01  2.10769025e-01  5.97484051e-01  6.96021505e-01
   3.98888632e-01  5.66154958e-01]
 [ 0.00000000e+00  5.00000000e-01  7.64731183e-01  0.00000000e+00
   4.33315545e-01  8.07952529e-02  5.37083333e-01  5.36236559e-01
   5.17221146e-01  5.28307362e-01]
 [ 1.32583542e-01  5.63541667e-01  5.62365591e-01  5.45068428e-01
   5.53773759e-01  3.24098684e-01  6.45454545e-01  7.32258065e-01
   5.59821219e-01  6.42733347e-01]
 [ 1.10275735e-01  5.46254399e-01  6.14193548e-01  3.28505156e-01
   4.79206189e-01  0.00000000e+00  5.00000000e-01  7.32043011e-01
   0.00000000e+00  4.22620008e-01]
 [ 3.33495098e-01  6.65206852e-01  6.85913978e-01  6.25660012e-01
   6.61311942e-01  5.04675480e-01  7.52916667e-01  7.51397849e-01
   7.41876800e-01  7.47198462e-01]
 [ 2.25364382e-01  6.10259104e-01  6.24516129e-01  5.68208719e-01
   5.96725596e-01  3.31729192e-01  6.64019967e-01  6.76451613e-01
   6.44447843e-01  6.59351159e-01]
 [ 1.34680570e-01  5.59155844e-01  7.15913978e-01  3.31712736e-01
   5.28543026e-01  5.86697931e-01  7.90625000e-01  7.89892473e-01
   7.84860382e-01  7.87941231e-01]
 [-1.27167630e-02  4.94736842e-01  6.27311828e-01  0.00000000e+00
   3.85359488e-01  4.91084045e-01  7.37977958e-01  7.67956989e-01
   7.18779728e-01  7.45213910e-01]
 [ 1.73931688e-01  5.75518341e-01  6.72903226e-01  3.72896607e-01
   5.35157276e-01  4.22856173e-01  7.05488445e-01  7.22150538e-01
   6.67688370e-01  7.00126623e-01]
 [ 2.27732856e-01  6.00518341e-01  6.86021505e-01  4.57601990e-01
   5.70010335e-01  9.31287644e-02  5.40800866e-01  6.63763441e-01
   2.73213024e-01  4.90822342e-01]]
GBM mean:
[0.24790754 0.61632428 0.70301902 0.45672439 0.58998959 0.33551255
 0.66017235 0.71769231 0.56433437 0.64719455]
---------------------------
---------------------------
BDDAE performance:
[[0. 0. 0. 0. 0. 0. 0. 0. 0. 0.]
 [0. 0. 0. 0. 0. 0. 0. 0. 0. 0.]
 [0. 0. 0. 0. 0. 0. 0. 0. 0. 0.]
 [0. 0. 0. 0. 0. 0. 0. 0. 0. 0.]
 [0. 0. 0. 0. 0. 0. 0. 0. 0. 0.]
 [0. 0. 0. 0. 0. 0. 0. 0. 0. 0.]
 [0. 0. 0. 0. 0. 0. 0. 0. 0. 0.]
 [0. 0. 0. 0. 0. 0. 0. 0. 0. 0.]
 [0. 0. 0. 0. 0. 0. 0. 0. 0. 0.]
 [0. 0. 0. 0. 0. 0. 0. 0. 0. 0.]
 [0. 0. 0. 0. 0. 0. 0. 0. 0. 0.]
 [0. 0. 0. 0. 0. 0. 0. 0. 0. 0.]
 [0. 0. 0. 0. 0. 0. 0. 0. 0. 0.]
 [0. 0. 0. 0. 0. 0. 0. 0. 0. 0.]
 [0. 0. 0. 0. 0. 0. 0. 0. 0. 0.]
 [0. 0. 0. 0. 0. 0. 0. 0. 0. 0.]
 [0. 0. 0. 0. 0. 0. 0. 0. 0. 0.]
 [0. 0. 0. 0. 0. 0. 0. 0. 0. 0.]
 [0. 0. 0. 0. 0. 0. 0. 0. 0. 0.]
 [0. 0. 0. 0. 0. 0. 0. 0. 0. 0.]
 [0. 0. 0. 0. 0. 0. 0. 0. 0. 0.]
 [0. 0. 0. 0. 0. 0. 0. 0. 0. 0.]
 [0. 0. 0. 0. 0. 0. 0. 0. 0. 0.]
 [0. 0. 0. 0. 0. 0. 0. 0. 0. 0.]
 [0. 0. 0. 0. 0. 0. 0. 0. 0. 0.]
 [0. 0. 0. 0. 0. 0. 0. 0. 0. 0.]
 [0. 0. 0. 0. 0. 0. 0. 0. 0. 0.]]
BDDAE mean:
[0. 0. 0. 0. 0. 0. 0. 0. 0. 0.]
---------------------------
---------------------------
DUMMY performance:
[[0.         0.5        0.54903226 0.         0.35440564 0.
  0.5        0.75505376 0.         0.43018423]
 [0.         0.5        0.54236559 0.         0.35163043 0.
  0.5        0.6144086  0.         0.38055102]
 [0.         0.5        0.60774194 0.         0.378      0.
  0.5        0.51301075 0.         0.33903793]
 [0.         0.5        0.51634409 0.         0.3404872  0.
  0.5        0.52946237 0.         0.34613398]
 [0.         0.5        0.60129032 0.         0.37546939 0.
  0.5        0.50322581 0.         0.33472094]
 [0.         0.5        0.67978495 0.         0.40466063 0.
  0.5        0.60774194 0.         0.378     ]
 [0.         0.5        0.69290323 0.         0.40926321 0.
  0.5        0.68645161 0.         0.40701357]
 [0.         0.5        0.51634409 0.         0.3404872  0.
  0.5        0.54236559 0.         0.35163043]
 [0.         0.5        0.60774194 0.         0.378      0.
  0.5        0.59806452 0.         0.37420408]
 [0.         0.5        0.6144086  0.         0.38055102 0.
  0.5        0.61107527 0.         0.37927551]
 [0.         0.5        0.56860215 0.         0.36245296 0.
  0.5        0.56860215 0.         0.36245296]
 [0.         0.5        0.65376344 0.         0.39529412 0.
  0.5        0.52946237 0.         0.34613398]
 [0.         0.5        0.67978495 0.         0.40466063 0.
  0.5        0.62752688 0.         0.38553341]
 [0.         0.5        0.5916129  0.         0.37167347 0.
  0.5        0.66344086 0.         0.3988009 ]
 [0.         0.5        0.5783871  0.         0.3664188  0.
  0.5        0.5916129  0.         0.37167347]
 [0.         0.5        0.85634409 0.         0.46127387 0.
  0.5        0.59806452 0.         0.37420408]
 [0.         0.5        0.68967742 0.         0.40813839 0.
  0.5        0.55236559 0.         0.35579325]
 [0.         0.5        0.66989247 0.         0.40113876 0.
  0.5        0.63397849 0.         0.38796479]
 [0.         0.5        0.76473118 0.         0.43331555 0.
  0.5        0.49032258 0.         0.32898551]
 [0.         0.5        0.50322581 0.         0.33472094 0.
  0.5        0.65376344 0.         0.39529412]
 [0.         0.5        0.58172043 0.         0.36774859 0.
  0.5        0.73204301 0.         0.42262001]
 [0.         0.5        0.55569892 0.         0.35718085 0.
  0.5        0.50322581 0.         0.33472094]
 [0.         0.5        0.53913978 0.         0.35025632 0.
  0.5        0.56215054 0.         0.35981691]
 [0.         0.5        0.68967742 0.         0.40813839 0.
  0.5        0.50322581 0.         0.33472094]
 [0.         0.5        0.63397849 0.         0.38796479 0.
  0.5        0.59806452 0.         0.37420408]
 [0.         0.5        0.62430108 0.         0.38431773 0.
  0.5        0.54236559 0.         0.35163043]
 [0.         0.5        0.61774194 0.         0.38182653 0.
  0.5        0.65698925 0.         0.39646305]]
DUMMY mean:
[0.         0.5        0.61949024 0.         0.38109168 0.
 0.5        0.5914098  0.         0.37043572]
---------------------------
Current folder: C:\Users\Javier\Dropbox\c_sldl_3_1_3
-------------------------------------
----- RESULTS ------
-------------------------------------
Window size (sec):  8.0
step (sec):  4.0
overlap:  True
perc. of overlap:  50.0
Number of windows / instances:  306
---------------------------
ALG Means: 
-rows: alg : KNN = 0; DT = 1; RF = 2; SVM = 3; GBM = 4; BDDAE = 5; DUMMY = 5
columns:
'val_cohen','val_uar', 'val_acc', 'val_gm',  'val_f1',  'aro_cohen','aro_uar', 'aro_acc', 'aro_gm',  'aro_f1'
-------------------------------------------------------------
  v_c   v_u   v_a   v_g   v_f1  a_c   a_u   a_a   a_g   a_f1
[[0.323 0.657 0.703 0.617 0.656 0.342 0.668 0.694 0.649 0.667]
 [0.255 0.628 0.657 0.615 0.625 0.329 0.662 0.68  0.652 0.659]
 [0.281 0.644 0.688 0.618 0.642 0.339 0.67  0.693 0.656 0.669]
 [0.141 0.568 0.669 0.255 0.501 0.17  0.582 0.661 0.34  0.527]
 [0.248 0.616 0.703 0.457 0.59  0.336 0.66  0.718 0.564 0.647]
 [0.    0.    0.    0.    0.    0.    0.    0.    0.    0.   ]
 [0.    0.5   0.619 0.    0.381 0.    0.5   0.591 0.    0.37 ]]
Elapsed time: 6.560576264063517 minutes
Elapsed time: 0.10934293773439195 hours
