2024-03-17 12:45:32.709762: I tensorflow/core/util/port.cc:113] oneDNN custom operations are on. You may see slightly different numerical results due to floating-point round-off errors from different computation orders. To turn them off, set the environment variable `TF_ENABLE_ONEDNN_OPTS=0`.
2024-03-17 12:45:36.298811: I tensorflow/core/util/port.cc:113] oneDNN custom operations are on. You may see slightly different numerical results due to floating-point round-off errors from different computation orders. To turn them off, set the environment variable `TF_ENABLE_ONEDNN_OPTS=0`.
2024-03-17 12:45:45.331026: I tensorflow/core/platform/cpu_feature_guard.cc:210] This TensorFlow binary is optimized to use available CPU instructions in performance-critical operations.
To enable the following instructions: AVX2 FMA, in other operations, rebuild TensorFlow with the appropriate compiler flags.
    
    
-------------------------------
participant:  1
-------------------------------
    
    
participant:  1
corriendo en PC gamer:
Window size (sec):  16.0
step (sec):  8.0
overlap:  True
perc. of overlap:  50.0
overlap duration (sec):  8.0
Nearest multiple of 16 to 16000 is: 16000
Nearest multiple of 16 to 8000 is: 8000
['gsr_chunks', 'ppg_chunks', 'val_chunks', 'aro_chunks', 'time_chunks', 'tag_chunks', 'video']
C:\Users\Javier\Dropbox\c_sldl_1_2_16\functions.py:880: FutureWarning: ChainedAssignmentError: behaviour will change in pandas 3.0!

[1m1/1[0m [32m━━━━━━━━━━━━━━━━━━━━[0m[37m[0m [1m0s[0m 109ms/step
predicted [0.8953575  0.7090744  0.9506008  0.95973027 0.8640094  0.6787293
 0.93888164 0.915419   0.14925005 0.9477175  0.9022848  0.69082725
 0.9259101  0.9535895  0.02749513 0.60108554 0.87342876 0.9050136
 0.93026596 0.8107834  0.8127823  0.80704904 0.9516873  0.9285493
 0.08169942 0.9818255  0.96523726 0.93625766 0.9543109  0.3810033 ]
predicted [1 1 1 1 1 1 1 1 0 1 1 1 1 1 0 1 1 1 1 1 1 1 1 1 0 1 1 1 1 0]
expected [False  True  True False False  True  True False  True  True  True  True
 False  True False  True  True False  True  True  True  True False  True
 False False False  True  True  True]
accuracy: 0.6333333333333333
confusion matrix: 
[[ 2  9]
 [ 2 17]]
              precision    recall  f1-score   support

       False       0.50      0.18      0.27        11
        True       0.65      0.89      0.76        19

    accuracy                           0.63        30
   macro avg       0.58      0.54      0.51        30
weighted avg       0.60      0.63      0.58        30

macro avg f1-score: 0.5111111111111111
macro avg (UAR): 0.5382775119617225
Sensitivity:  0.18181818181818182
Specificity:  0.8947368421052632
g-mean:  0.4033353763771789
-------- Model Performance ----------: 
accuracy:  [0.56666667 0.73333333 0.53333333 0.6        0.6        0.56666667
 0.73333333 0.7        0.6        0.63333333]
gmean:  [0.49880239 0.52223297 0.47923384 0.58693919 0.39129279 0.57872984
 0.63772923 0.61868822 0.46401617 0.40333538]
f1_score:  [0.52380952 0.62732919 0.49760766 0.58333333 0.48863636 0.56228956
 0.68253968 0.6534018  0.52380952 0.51111111]
UAR:  [0.52392344 0.63636364 0.49760766 0.58851675 0.51196172 0.58133971
 0.67464115 0.64832536 0.53110048 0.53827751]
Cohen Kappa score:  [ 0.04878049  0.3220339  -0.00478469  0.17050691  0.02702703  0.14847162
  0.37823834  0.31472081  0.06735751  0.08839779]
arousal and valece = ok
------------- Evaluating model --------------
-------------------------------------
-------------------------------------
participant:  30
-------------------------------------
----- RESULTS ------
-------------------------------------
Window size (sec):  16.0
step (sec):  8.0
overlap:  True
perc. of overlap:  50.0
overlap duration (sec):  8.0
Number of windows / instances:  147
-rows: alg : KNN = 0; DT = 1; RF = 2; SVM = 3; GBM = 4; BDDAE = 5; DUMMY = 5
columns:
'val_cohen','val_uar', 'val_acc', 'val_gm',  'val_f1',  'aro_cohen','aro_uar', 'aro_acc', 'aro_gm',  'aro_f1'
-------------------------------------------------------------
  v_c   v_u   v_a   v_g   v_f1  a_c   a_u   a_a   a_g   a_f1
[[ 0.789  0.9    0.898  0.897  0.893  0.593  0.793  0.816  0.788  0.796]
 [ 0.591  0.807  0.825  0.782  0.806  0.609  0.785  0.796  0.751  0.776]
 [ 0.72   0.836  0.858  0.847  0.839  0.599  0.781  0.804  0.781  0.783]
 [ 0.643  0.803  0.844  0.78   0.817  0.045  0.518  0.653  0.13   0.44 ]
 [ 0.58   0.79   0.802  0.788  0.788  0.369  0.672  0.734  0.63   0.676]
 [ 0.156  0.573  0.627  0.518  0.565 -0.009  0.496  0.587  0.295  0.452]
 [ 0.     0.5    0.626  0.     0.385  0.     0.5    0.646  0.     0.392]]
participant performance loaded
    
    
-------------------------------
LAST participant's saved data: 
30
-------------------------------
    
    
---------------------------
KNN performance:
[[0.62778225 0.81230159 0.81666667 0.80677048 0.81227584 0.30213257
  0.64734848 0.78380952 0.47655884 0.63110014]
 [0.46466848 0.73581349 0.72952381 0.71881932 0.72380997 0.43785359
  0.71722222 0.74142857 0.69067164 0.71169181]
 [0.50182103 0.74236111 0.76904762 0.712604   0.74217936 0.51159954
  0.75535714 0.75666667 0.74607388 0.7519475 ]
 [0.42523254 0.71160714 0.71571429 0.69994549 0.70820026 0.07130063
  0.53113636 0.67333333 0.33099375 0.523968  ]
 [0.60711597 0.79611111 0.83       0.77358008 0.79949939 0.54967762
  0.77410714 0.77571429 0.76395328 0.77145111]
 [0.55742875 0.77708333 0.78047619 0.76107642 0.77271579 0.64616567
  0.82321429 0.82380952 0.82121041 0.82240079]
 [0.28437385 0.64069444 0.66666667 0.60558232 0.63293493 0.38749199
  0.69375    0.6947619  0.66308978 0.6795821 ]
 [0.91228178 0.94795455 0.96571429 0.94522008 0.95597042 0.6617193
  0.83777778 0.83666667 0.83135169 0.82879659]
 [0.19599759 0.59795455 0.69428571 0.47365701 0.58196499 0.20794858
  0.60545455 0.68714286 0.48205231 0.58630311]
 [0.3856721  0.69196429 0.69238095 0.67487114 0.68447967 0.26564661
  0.63095238 0.63571429 0.62075589 0.62864789]
 [0.17562145 0.58722222 0.6247619  0.49623394 0.57406129 0.38041669
  0.68833333 0.72285714 0.64614886 0.67959918]
 [0.73286478 0.85888889 0.87904762 0.84827705 0.86428059 0.63850809
  0.80888889 0.83714286 0.79248354 0.81561066]
 [0.40812528 0.70277778 0.70666667 0.68710372 0.69639625 0.30055862
  0.6469246  0.66666667 0.61687921 0.6407896 ]
 [0.17651055 0.58       0.65571429 0.46553745 0.57247627 0.44919123
  0.72172619 0.73333333 0.69707602 0.71608196]
 [0.308749   0.64545455 0.72809524 0.56472162 0.64310071 0.15902795
  0.58388889 0.62619048 0.51348381 0.56924199]
 [0.40331809 0.69861111 0.72142857 0.67273928 0.69520728 0.52679842
  0.75777778 0.79571429 0.73496955 0.75912931]
 [0.45219588 0.72609127 0.72571429 0.71618707 0.71998665 0.39178928
  0.68819444 0.72190476 0.6476987  0.68466743]
 [0.19265712 0.6099359  0.84380952 0.31112126 0.57919515 0.42582705
  0.71587302 0.72142857 0.70331786 0.70874775]
 [0.43436197 0.72       0.76285714 0.65577671 0.70721887 0.48877817
  0.74345238 0.74904762 0.73061323 0.74027598]
 [0.42283612 0.70886364 0.7752381  0.64347571 0.7046989  0.26370315
  0.63222222 0.66809524 0.56811876 0.61929833]
 [0.13526147 0.56287879 0.68619048 0.42406006 0.558381   0.11377038
  0.55714286 0.55761905 0.54585117 0.55152069]
 [0.32532895 0.66339286 0.66619048 0.63184121 0.65010728 0.46320237
  0.73166667 0.76142857 0.70656275 0.72553111]
 [0.25122829 0.62123016 0.6447619  0.58099208 0.61344213 0.3729552
  0.67492424 0.78333333 0.58792401 0.67889046]
 [0.24606619 0.62321429 0.62428571 0.59628322 0.61093933 0.62538853
  0.80436508 0.82285714 0.78828229 0.80846073]
 [0.49088948 0.74375    0.7552381  0.73066129 0.74199956 0.67650184
  0.84107143 0.83714286 0.8352967  0.83624515]
 [0.38549636 0.69017857 0.69952381 0.67267987 0.68688788 0.50702079
  0.75367063 0.75666667 0.73790936 0.74752181]
 [0.4987502  0.73522727 0.79714286 0.71429672 0.74648331 0.58576316
  0.79375    0.79238095 0.78696064 0.79016905]
 [0.36591232 0.68222222 0.70619048 0.65695429 0.67509816 0.52965489
  0.76638889 0.7752381  0.75794147 0.76279504]
 [0.08244065 0.53888889 0.5847619  0.48630923 0.53205988 0.22845332
  0.61279762 0.61761905 0.58028317 0.59926587]
 [0.7887168  0.9        0.89761905 0.89676592 0.89306136 0.59346856
  0.79333333 0.81571429 0.78806053 0.79624212]]
KNN mean:
[0.40799018 0.7017558  0.73819048 0.65413813 0.69597042 0.42541046
 0.71109043 0.73904762 0.67308577 0.70553244]
---------------------------
---------------------------
DT performance:
[[ 0.56570003  0.73452381  0.74        0.81003252  0.73026961  0.39348667
   0.6905303   0.77428571  0.57280255  0.65842296]
 [ 0.44394969  0.74315476  0.74238095  0.7268571   0.73919232  0.41010327
   0.75333333  0.7752381   0.70493307  0.75115331]
 [ 0.43808516  0.70833333  0.7147619   0.71444818  0.70400709  0.40211851
   0.69017857  0.68619048  0.69273721  0.68181916]
 [ 0.55119284  0.7297619   0.72857143  0.72346299  0.7252178  -0.0557174
   0.48068182  0.57190476  0.35386726  0.48259159]
 [ 0.51512478  0.75777778  0.77571429  0.72243076  0.75274468  0.52257635
   0.76071429  0.76238095  0.74526733  0.75702156]
 [ 0.47499144  0.7235119   0.72761905  0.72057991  0.72097166  0.48392533
   0.74345238  0.74142857  0.73945206  0.73519089]
 [ 0.39772952  0.70708333  0.7352381   0.68241974  0.70933394  0.37612342
   0.67142857  0.66904762  0.67116667  0.66005252]
 [ 0.83623907  0.91090909  0.93142857  0.89231643  0.91363699  0.47861876
   0.765       0.7752381   0.75137292  0.76032809]
 [ 0.35454547  0.65659091  0.73380952  0.61096593  0.65261031  0.30137598
   0.66386364  0.6947619   0.64007029  0.64895151]
 [ 0.48913625  0.71339286  0.71095238  0.73863845  0.70606744  0.3203283
   0.63511905  0.63809524  0.66666863  0.63038467]
 [ 0.1711995   0.59666667  0.61904762  0.51456267  0.58445258  0.41841754
   0.73611111  0.7547619   0.71826906  0.73120262]
 [ 0.63860796  0.80277778  0.82333333  0.80549563  0.80457022  0.52243184
   0.72722222  0.75        0.7682731   0.72902378]
 [ 0.29668243  0.64791667  0.66        0.61851144  0.64268626  0.26386418
   0.62380952  0.63428571  0.57442006  0.61198102]
 [ 0.06725355  0.585       0.60571429  0.53258371  0.57687194  0.34734802
   0.69404762  0.69380952  0.68378589  0.68661825]
 [ 0.10037915  0.58977273  0.65380952  0.5059794   0.57973576  0.26337601
   0.64833333  0.67380952  0.61175608  0.64342416]
 [ 0.43573302  0.73958333  0.75619048  0.67254768  0.73767134  0.67074248
   0.81777778  0.82333333  0.82738286  0.80829487]
 [ 0.62253485  0.8014881   0.80095238  0.81610762  0.79670063  0.57147347
   0.78472222  0.78904762  0.78258605  0.78138443]
 [ 0.47742706  0.72339744  0.87142857  0.6493175   0.72210969  0.43109233
   0.70962302  0.71857143  0.71023504  0.70689638]
 [ 0.5642707   0.7825      0.81        0.77460497  0.77210157  0.46938434
   0.68422619  0.68809524  0.70966721  0.67873342]
 [ 0.245429    0.63340909  0.7         0.53326969  0.62410942  0.18114665
   0.635       0.6452381   0.56494224  0.62064475]
 [ 0.16992682  0.56893939  0.66095238  0.51778202  0.55654401  0.22407999
   0.60892857  0.60619048  0.58498221  0.5978927 ]
 [ 0.32718307  0.69732143  0.7         0.66387157  0.69449427  0.40143436
   0.73444444  0.75571429  0.6621732   0.72373698]
 [ 0.28332163  0.65972222  0.66666667  0.62208312  0.64631289  0.21538465
   0.66818182  0.75        0.56979642  0.66619832]
 [ 0.23052606  0.6625      0.66285714  0.5813811   0.64967144  0.50365659
   0.75644841  0.75571429  0.74558124  0.75063827]
 [ 0.42717102  0.75882937  0.76333333  0.73064142  0.75777262  0.55662638
   0.82053571  0.81761905  0.80130488  0.81698718]
 [ 0.30697751  0.68720238  0.68571429  0.67643698  0.67682621  0.42313844
   0.70882937  0.71        0.71380137  0.70245484]
 [ 0.4886813   0.75477273  0.79619048  0.72249794  0.75038794  0.55664314
   0.77767857  0.77952381  0.77292766  0.77400547]
 [ 0.3394044   0.69666667  0.72714286  0.56692389  0.69435465  0.45646678
   0.72541667  0.72666667  0.70077041  0.71899561]
 [ 0.3109839   0.65666667  0.68047619  0.6362331   0.65254338  0.42725143
   0.69345238  0.69380952  0.63085382  0.6840089 ]
 [ 0.59122034  0.80666667  0.8247619   0.78190261  0.80638963  0.60941863
   0.785       0.79571429  0.75059448  0.77609321]]
DT mean:
[0.40538692 0.70789463 0.73363492 0.6754962  0.70267861 0.40487721
 0.7064697  0.72168254 0.68074804 0.69917105]
---------------------------
---------------------------
RF performance:
[[0.66531779 0.85565476 0.86095238 0.86968872 0.85622989 0.37356592
  0.68863636 0.79666667 0.57962727 0.65809614]
 [0.47948278 0.7531746  0.76190476 0.72937382 0.7511523  0.51628219
  0.70722222 0.72047619 0.7739012  0.70310142]
 [0.51962409 0.76944444 0.79095238 0.7019588  0.77425285 0.43648955
  0.72946429 0.72761905 0.67794337 0.72535203]
 [0.44615754 0.76220238 0.76190476 0.71977939 0.75535869 0.04984951
  0.65545455 0.72714286 0.42482697 0.6528111 ]
 [0.55125808 0.775      0.79619048 0.7852044  0.7752894  0.53944021
  0.73839286 0.74333333 0.71089449 0.73479656]
 [0.62805607 0.81547619 0.81571429 0.76652995 0.81225207 0.54876052
  0.825      0.82285714 0.83008247 0.82038089]
 [0.47321846 0.71916667 0.7352381  0.64104717 0.71951006 0.38857724
  0.72232143 0.72047619 0.70140531 0.71826842]
 [0.90392797 0.94045455 0.95285714 0.94008841 0.94396313 0.65948029
  0.77888889 0.78857143 0.77685954 0.77457582]
 [0.44123058 0.64886364 0.72904762 0.63570737 0.63638632 0.35501145
  0.70090909 0.74142857 0.56647569 0.69481529]
 [0.39771943 0.775      0.77428571 0.77849858 0.77195513 0.24513987
  0.65565476 0.66428571 0.68629172 0.6520425 ]
 [0.12845537 0.62777778 0.65238095 0.5104225  0.61761043 0.45751232
  0.74333333 0.77047619 0.75631698 0.73760422]
 [0.67774062 0.84444444 0.8447619  0.85840531 0.83763516 0.50942025
  0.77611111 0.80285714 0.77215401 0.77807662]
 [0.40670288 0.70009921 0.71571429 0.70953279 0.69879805 0.24743516
  0.69563492 0.7        0.64438484 0.69404382]
 [0.10003087 0.57722222 0.63285714 0.44759714 0.56784066 0.35210949
  0.67202381 0.6752381  0.68279887 0.66876843]
 [0.32176411 0.64386364 0.7052381  0.57827564 0.6433989  0.35134318
  0.62388889 0.65952381 0.59403297 0.61734334]
 [0.37239292 0.73680556 0.76238095 0.68488315 0.74094204 0.65796708
  0.79388889 0.82380952 0.78970998 0.79773297]
 [0.75056502 0.82996032 0.83       0.87954997 0.82515474 0.71301306
  0.82152778 0.82285714 0.80977884 0.81777206]
 [0.23905566 0.71314103 0.89190476 0.44143943 0.7267296  0.41449413
  0.77371032 0.78952381 0.65781892 0.7742135 ]
 [0.52039712 0.8175     0.83761905 0.79134275 0.8000917  0.6435849
  0.79484127 0.80285714 0.82599063 0.79385369]
 [0.38926019 0.66227273 0.72142857 0.67502341 0.65803015 0.2932317
  0.59277778 0.64761905 0.5948954  0.57959554]
 [0.2471878  0.53068182 0.67952381 0.49743789 0.5103579  0.23981545
  0.53035714 0.53095238 0.48537851 0.5291629 ]
 [0.32695372 0.63482143 0.63714286 0.6982621  0.62421254 0.46001831
  0.69055556 0.73380952 0.73574174 0.67295826]
 [0.33883408 0.73680556 0.74857143 0.65763236 0.73426854 0.38290066
  0.71878788 0.79       0.73414287 0.71793855]
 [0.21561644 0.65178571 0.65       0.65646707 0.64635379 0.5417234
  0.81577381 0.81619048 0.79185156 0.80983265]
 [0.45411195 0.73690476 0.74714286 0.70293423 0.73596659 0.65991455
  0.84017857 0.83619048 0.86761552 0.83039675]
 [0.39485436 0.65654762 0.65809524 0.60992032 0.6440416  0.50462039
  0.72311508 0.72952381 0.720996   0.72043062]
 [0.67815738 0.77886364 0.83761905 0.77641088 0.78805545 0.53310151
  0.87321429 0.8752381  0.78989936 0.87263566]
 [0.31031127 0.705      0.7347619  0.57176887 0.70458725 0.51066086
  0.73930556 0.75333333 0.7620212  0.73764894]
 [0.33262355 0.68055556 0.70761905 0.62718688 0.67113721 0.39168683
  0.70833333 0.70809524 0.67984251 0.70390658]
 [0.72009878 0.83611111 0.85761905 0.84673256 0.83920036 0.59926922
  0.78111111 0.80380952 0.78062149 0.78264008]]
RF mean:
[0.44770356 0.73052004 0.76104762 0.69297006 0.72702542 0.45254731
 0.73034716 0.7508254  0.70681001 0.72569318]
---------------------------
---------------------------
SVM performance:
[[0.23068267 0.60694444 0.64761905 0.47989606 0.56508145 0.
  0.5        0.76238095 0.         0.43242735]
 [0.35846245 0.6718254  0.6947619  0.62095112 0.6600263  0.22222185
  0.59333333 0.6947619  0.40543031 0.55441135]
 [0.49161449 0.72777778 0.7752381  0.67037584 0.72802157 0.35854814
  0.68125    0.68047619 0.66458247 0.67253023]
 [0.42712321 0.70833333 0.72238095 0.67804277 0.70306237 0.
  0.5        0.72095238 0.         0.41884615]
 [0.535606   0.75       0.80285714 0.71528806 0.76078384 0.46671173
  0.73125    0.73428571 0.70929193 0.72381716]
 [0.24965156 0.62083333 0.63809524 0.5467956  0.59380287 0.5912614
  0.79613095 0.79571429 0.78655893 0.79211889]
 [0.         0.5        0.59857143 0.         0.37435771 0.3415353
  0.67053571 0.67333333 0.62976666 0.65211441]
 [0.75062958 0.85295455 0.90428571 0.84009747 0.87425889 0.33266571
  0.65277778 0.7147619  0.55151006 0.64025841]
 [0.         0.5        0.70761905 0.         0.41423077 0.
  0.5        0.68761905 0.         0.40730769]
 [0.26784081 0.63571429 0.63095238 0.6215955  0.62607466 0.05803118
  0.52738095 0.56428571 0.19898372 0.43099096]
 [0.         0.5        0.61952381 0.         0.3823913  0.10671316
  0.545      0.65380952 0.21191721 0.4670304 ]
 [0.13479269 0.55777778 0.66095238 0.26893142 0.49224685 0.04896609
  0.52111111 0.63285714 0.12381336 0.42747412]
 [0.18526549 0.5859127  0.64       0.40539884 0.53985061 0.
  0.5        0.5647619  0.         0.36072134]
 [0.         0.5        0.65952381 0.         0.3973913  0.21376141
  0.60059524 0.63333333 0.45623776 0.54519575]
 [0.         0.5        0.69428571 0.         0.40961538 0.
  0.5        0.63952381 0.         0.3898913 ]
 [0.         0.5        0.59142857 0.         0.37159091 0.
  0.5        0.65952381 0.         0.3973913 ]
 [0.         0.5        0.57142857 0.         0.36343874 0.
  0.5        0.59142857 0.         0.37159091]
 [0.         0.5        0.85714286 0.         0.46147741 0.024006
  0.51041667 0.59142857 0.08164966 0.39777668]
 [0.         0.5        0.68095238 0.         0.405      0.
  0.5        0.55142857 0.         0.35528656]
 [0.         0.5        0.69428571 0.         0.40961538 0.
  0.5        0.63952381 0.         0.3898913 ]
 [0.         0.5        0.74904762 0.         0.42815385 0.
  0.5        0.51666667 0.         0.34051383]
 [0.41941748 0.70892857 0.71380952 0.66154367 0.68924089 0.
  0.5        0.63952381 0.         0.3898913 ]
 [0.         0.5        0.57142857 0.         0.36343874 0.
  0.5        0.74190476 0.         0.42582051]
 [0.         0.5        0.52333333 0.         0.34347826 0.43100903
  0.70426587 0.74190476 0.64540923 0.69613933]
 [0.01935484 0.50833333 0.5647619  0.04082483 0.3739201  0.49742311
  0.74821429 0.74761905 0.72729438 0.73883191]
 [0.         0.5        0.53761905 0.         0.34953887 0.44824675
  0.71934524 0.73619048 0.68234697 0.71033965]
 [0.14009389 0.555      0.7347619  0.23416408 0.51042698 0.57248832
  0.78660714 0.78761905 0.77297821 0.7809978 ]
 [0.         0.5        0.63285714 0.         0.3873913  0.22860715
  0.60333333 0.67238095 0.41493111 0.55825578]
 [0.         0.5        0.61285714 0.         0.3798913  0.1282569
  0.56041667 0.59238095 0.29849125 0.46965446]
 [0.64284177 0.80333333 0.84380952 0.78013266 0.81671736 0.04514975
  0.51833333 0.65333333 0.13026755 0.43986872]]
SVM mean:
[0.16177923 0.57645563 0.67587302 0.2521346  0.5058172  0.1705201
 0.58234325 0.66719048 0.28304869 0.51257952]
---------------------------
---------------------------
GBM performance:
[[ 0.68185747  0.83511905  0.84904762  0.81997679  0.83681111  0.330392
   0.65340909  0.81809524  0.4158645   0.62949291]
 [ 0.37684981  0.6828373   0.70666667  0.60280898  0.66463592  0.4582686
   0.70944444  0.76857143  0.65661849  0.71508164]
 [ 0.49746314  0.73333333  0.77571429  0.68413474  0.73399093  0.34381449
   0.67232143  0.67142857  0.65710245  0.66443313]
 [ 0.46216478  0.72916667  0.73428571  0.71550659  0.72577901  0.
   0.5         0.72095238  0.          0.41884615]
 [ 0.57681634  0.77055556  0.82333333  0.74738024  0.77802201  0.50769818
   0.725       0.72904762  0.72525072  0.72066428]
 [ 0.51962327  0.7610119   0.76        0.74771648  0.75793199  0.56176268
   0.78541667  0.78857143  0.7672541   0.77658621]
 [ 0.40815338  0.69111111  0.7347619   0.62680053  0.69023734  0.51062681
   0.74196429  0.74285714  0.72918437  0.73611261]
 [ 0.83168092  0.92045455  0.93857143  0.91437884  0.92298954  0.59237719
   0.81111111  0.83714286  0.75632225  0.81631161]
 [ 0.27156844  0.63840909  0.76761905  0.45135585  0.63145577 -0.02964396
   0.4925      0.65428571  0.12727715  0.43335999]
 [ 0.34258088  0.69375     0.69285714  0.66824493  0.68530011  0.32711511
   0.66011905  0.67238095  0.61354805  0.64318903]
 [ 0.08650876  0.54833333  0.62571429  0.34365577  0.51269583  0.63113683
   0.80444444  0.83857143  0.77859859  0.80942194]
 [ 0.58165241  0.77722222  0.81714286  0.76587258  0.78527664  0.54816491
   0.76944444  0.79619048  0.75282274  0.76627435]
 [ 0.31138167  0.64365079  0.66619048  0.61791426  0.63831417  0.2961643
   0.63234127  0.64619048  0.61806169  0.63036707]
 [ 0.21882996  0.58444444  0.70666667  0.35777939  0.54982731  0.30993814
   0.65446429  0.6647619   0.6094698   0.63999952]
 [-0.05040323  0.48        0.66714286  0.          0.39957915  0.10765671
   0.53944444  0.63904762  0.28112262  0.49221793]
 [ 0.18958828  0.57777778  0.64714286  0.37984743  0.52815128  0.49061718
   0.72        0.79        0.67100679  0.72859905]
 [ 0.71867842  0.86517857  0.87047619  0.85806576  0.86428601  0.50091023
   0.73680556  0.76857143  0.70929368  0.74196119]
 [ 0.25514396  0.61730769  0.87761905  0.30646572  0.60285267  0.39535097
   0.70406746  0.72095238  0.64842592  0.69084189]
 [ 0.44279789  0.7325      0.78904762  0.63776574  0.70784806  0.47590255
   0.73343254  0.74904762  0.70305418  0.72711057]
 [ 0.19121227  0.58545455  0.72095238  0.39388878  0.57099848  0.10376468
   0.55944444  0.66666667  0.30072428  0.51079169]
 [ 0.          0.5125      0.75571429  0.05        0.44984615  0.05809714
   0.53660714  0.52952381  0.49037439  0.51639143]
 [ 0.32764692  0.65625     0.66        0.62986427  0.64555935  0.34545576
   0.68333333  0.7547619   0.57745957  0.67521913]
 [ 0.35992231  0.6922619   0.71380952  0.6391853   0.68124327  0.2632831
   0.61022727  0.77        0.47129226  0.61045859]
 [ 0.36397736  0.67410714  0.67666667  0.6516949   0.66495633  0.58537948
   0.78521825  0.79047619  0.77597656  0.78261171]
 [ 0.35326016  0.67539683  0.70238095  0.63144199  0.66836255  0.61919763
   0.81785714  0.8152381   0.80606264  0.81380468]
 [ 0.42767889  0.72380952  0.73333333  0.63129383  0.69979541  0.42708284
   0.7235119   0.73714286  0.69369081  0.71852205]
 [ 0.32779126  0.63090909  0.76142857  0.53632524  0.6412237   0.62728445
   0.81428571  0.81428571  0.80724145  0.81114433]
 [ 0.19275084  0.58888889  0.67333333  0.42308591  0.56033816  0.42284429
   0.70291667  0.73333333  0.67997072  0.70632417]
 [ 0.28342275  0.61777778  0.69428571  0.48536976  0.59864326  0.47181315
   0.73303571  0.74142857  0.71249346  0.72860812]
 [ 0.58037515  0.79        0.80238095  0.78811954  0.78759755  0.36903763
   0.67166667  0.73380952  0.62967968  0.67613683]]
GBM mean:
[0.37103248 0.68098397 0.74480952 0.570198   0.66615163 0.3883831
 0.68946116 0.73677778 0.60550813 0.67769613]
---------------------------
---------------------------
BDDAE performance:
[[-0.04989977  0.47511312  0.49333333  0.43655866  0.46351486 -0.00215988
   0.49751553  0.74        0.10994583  0.45731605]
 [ 0.23278271  0.61606335  0.62333333  0.60913294  0.61416728  0.46901163
   0.73277512  0.76333333  0.70756787  0.72898136]
 [-0.02140977  0.49027778  0.53666667  0.4168878   0.47461811  0.08
   0.54        0.54        0.53247977  0.53641494]
 [-0.09563751  0.45178571  0.45666667  0.4166339   0.43667991  0.13510253
   0.55965909  0.71        0.41172384  0.54592541]
 [ 0.3705078   0.68301435  0.71        0.66705034  0.68116235  0.32402819
   0.66339286  0.66        0.65521505  0.65720709]
 [ 0.51800729  0.75625     0.76333333  0.74076499  0.75367086 -0.0497644
   0.47544643  0.48        0.45372934  0.46703113]
 [ 0.05616977  0.52361111  0.56        0.47957461  0.51581396  0.1
   0.55        0.55        0.53921721  0.54501378]
 [ 0.54462874  0.74920635  0.82666667  0.71719091  0.76812563  0.09908072
   0.54722222  0.59666667  0.46394701  0.52659037]
 [ 0.41216246  0.68650794  0.78333333  0.6291843   0.69678056  0.43995714
   0.68888889  0.8         0.61643101  0.70511018]
 [-0.03333333  0.48333333  0.48333333  0.47211483  0.4778166   0.23374415
   0.615625    0.62333333  0.60231324  0.61275135]
 [ 0.04142513  0.51937799  0.59        0.43415072  0.50616239  0.21770809
   0.60167464  0.67        0.50099377  0.5881519 ]
 [ 0.16943917  0.58133971  0.62        0.54662076  0.5754491   0.36455356
   0.68660287  0.7         0.67900141  0.68016993]
 [-0.09874381  0.45158371  0.46666667  0.42014     0.44249546  0.32708002
   0.66515837  0.66666667  0.65862304  0.66035621]
 [-0.03052523  0.485       0.58333333  0.34984596  0.46825356  0.30101521
   0.65089286  0.65        0.63628876  0.64308117]
 [ 0.14121064  0.56587302  0.66333333  0.50000777  0.56500697  0.04614816
   0.52296651  0.58        0.44074824  0.50499424]
 [ 0.10479771  0.55277778  0.57        0.48349003  0.52263768  0.13714427
   0.5575      0.67        0.39915238  0.53460891]
 [ 0.54272697  0.77307692  0.77666667  0.75261468  0.76343507  0.19531941
   0.59166667  0.63666667  0.53805855  0.58396783]
 [ 0.14848709  0.56538462  0.83333333  0.32764266  0.56530619 -0.05632709
   0.47222222  0.51333333  0.4052737   0.45780145]
 [ 0.22671026  0.6075      0.67666667  0.56411544  0.60892087  0.30502111
   0.65045249  0.66333333  0.63263051  0.64736162]
 [ 0.0927027   0.54603175  0.62666667  0.48453923  0.53760022 -0.04213793
   0.47990431  0.56666667  0.30453044  0.44809741]
 [ 0.06583209  0.53579545  0.71        0.22343641  0.49453579  0.1447938
   0.571875    0.57666667  0.56141341  0.56870305]
 [-0.06666667  0.46666667  0.46666667  0.45769517  0.46236053  0.01280934
   0.5076555   0.58        0.3606589   0.482563  ]
 [ 0.19016251  0.59547511  0.6         0.59099647  0.59320824  0.46265132
   0.70397727  0.81666667  0.65709649  0.72586438]
 [-0.0138012   0.49285714  0.49        0.48129569  0.48520837  0.25519466
   0.62466063  0.64333333  0.60385026  0.62249727]
 [ 0.03902562  0.5199095   0.52666667  0.50828733  0.51524365  0.1
   0.55        0.55        0.5392941   0.54479601]
 [ 0.38231033  0.68973214  0.69666667  0.67207388  0.68468051  0.21212207
   0.60565611  0.61666667  0.59389985  0.60319229]
 [ 0.47837133  0.73095238  0.79666667  0.69535095  0.73566887  0.46666667
   0.73333333  0.73333333  0.71635606  0.72602624]
 [ 0.09713478  0.54784689  0.58        0.52773524  0.54551494  0.35442739
   0.67083333  0.70333333  0.64530485  0.67206933]
 [ 0.15859747  0.57916667  0.59666667  0.56039123  0.57425145  0.5542839
   0.775       0.78        0.77006791  0.77585884]
 [ 0.15607497  0.57320574  0.62666667  0.5181      0.56538677 -0.00908982
   0.49569378  0.58666667  0.29471565  0.45208477]]
BDDAE mean:
[0.15864167 0.57649054 0.62444444 0.52278743 0.56978922 0.20594614
 0.59960837 0.64555556 0.53435095 0.59015292]
---------------------------
---------------------------
DUMMY performance:
[[0.         0.5        0.55809524 0.         0.35800395 0.
  0.5        0.76238095 0.         0.43242735]
 [0.         0.5        0.55142857 0.         0.35528656 0.
  0.5        0.62619048 0.         0.3848913 ]
 [0.         0.5        0.59142857 0.         0.37159091 0.
  0.5        0.51       0.         0.33754941]
 [0.         0.5        0.53761905 0.         0.34953887 0.
  0.5        0.72095238 0.         0.41884615]
 [0.         0.5        0.63285714 0.         0.3873913  0.
  0.5        0.51666667 0.         0.34051383]
 [0.         0.5        0.53047619 0.         0.34650856 0.
  0.5        0.53047619 0.         0.34650856]
 [0.         0.5        0.59857143 0.         0.37435771 0.
  0.5        0.51       0.         0.33754941]
 [0.         0.5        0.69428571 0.         0.40961538 0.
  0.5        0.61285714 0.         0.3798913 ]
 [0.         0.5        0.70761905 0.         0.41423077 0.
  0.5        0.68761905 0.         0.40730769]
 [0.         0.5        0.47666667 0.         0.32272727 0.
  0.5        0.5447619  0.         0.35256917]
 [0.         0.5        0.61952381 0.         0.3823913  0.
  0.5        0.61952381 0.         0.3823913 ]
 [0.         0.5        0.61952381 0.         0.3823913  0.
  0.5        0.61952381 0.         0.3823913 ]
 [0.         0.5        0.57142857 0.         0.36343874 0.
  0.5        0.5647619  0.         0.36072134]
 [0.         0.5        0.65952381 0.         0.3973913  0.
  0.5        0.5447619  0.         0.35256917]
 [0.         0.5        0.69428571 0.         0.40961538 0.
  0.5        0.63952381 0.         0.3898913 ]
 [0.         0.5        0.59142857 0.         0.37159091 0.
  0.5        0.65952381 0.         0.3973913 ]
 [0.         0.5        0.57142857 0.         0.36343874 0.
  0.5        0.59142857 0.         0.37159091]
 [0.         0.5        0.85714286 0.         0.46147741 0.
  0.5        0.5847619  0.         0.36887352]
 [0.         0.5        0.68095238 0.         0.405      0.
  0.5        0.55142857 0.         0.35528656]
 [0.         0.5        0.69428571 0.         0.40961538 0.
  0.5        0.63952381 0.         0.3898913 ]
 [0.         0.5        0.74904762 0.         0.42815385 0.
  0.5        0.51666667 0.         0.34051383]
 [0.         0.5        0.47666667 0.         0.32272727 0.
  0.5        0.63952381 0.         0.3898913 ]
 [0.         0.5        0.57142857 0.         0.36343874 0.
  0.5        0.74190476 0.         0.42582051]
 [0.         0.5        0.52333333 0.         0.34347826 0.
  0.5        0.57142857 0.         0.36343874]
 [0.         0.5        0.55809524 0.         0.35800395 0.
  0.5        0.51       0.         0.33754941]
 [0.         0.5        0.53761905 0.         0.34953887 0.
  0.5        0.55809524 0.         0.35800395]
 [0.         0.5        0.70095238 0.         0.41192308 0.
  0.5        0.50333333 0.         0.33458498]
 [0.         0.5        0.63285714 0.         0.3873913  0.
  0.5        0.59857143 0.         0.37435771]
 [0.         0.5        0.61285714 0.         0.3798913  0.
  0.5        0.53761905 0.         0.34953887]
 [0.         0.5        0.62619048 0.         0.3848913  0.
  0.5        0.64619048 0.         0.3923913 ]]
DUMMY mean:
[0.         0.5        0.61425397 0.         0.37883466 0.
 0.5        0.59533333 0.         0.37183809]
---------------------------
Current folder: C:\Users\Javier\Dropbox\c_sldl_1_2_16
-------------------------------------
----- RESULTS from .csv files ------
-------------------------------------
---------------------------
ALG Means: 
-rows: alg : KNN = 0; DT = 1; RF = 2; SVM = 3; GBM = 4; BDDAE = 5; DUMMY = 5
columns:
'val_cohen','val_uar', 'val_acc', 'val_gm',  'val_f1',  'aro_cohen','aro_uar', 'aro_acc', 'aro_gm',  'aro_f1'
-------------------------------------------------------------
  v_c   v_u   v_a   v_g   v_f1  a_c   a_u   a_a   a_g   a_f1
[[0.408 0.702 0.738 0.654 0.696 0.425 0.711 0.739 0.673 0.706]
 [0.405 0.708 0.734 0.675 0.703 0.405 0.706 0.722 0.681 0.699]
 [0.448 0.731 0.761 0.693 0.727 0.453 0.73  0.751 0.707 0.726]
 [0.162 0.576 0.676 0.252 0.506 0.171 0.582 0.667 0.283 0.513]
 [0.371 0.681 0.745 0.57  0.666 0.388 0.689 0.737 0.606 0.678]
 [0.159 0.576 0.624 0.523 0.57  0.206 0.6   0.646 0.534 0.59 ]
 [0.    0.5   0.614 0.    0.379 0.    0.5   0.595 0.    0.372]]
-------------------------------------------------------------
Standard Deviation of each metric:
[[0.192 0.095 0.085 0.137 0.1   0.167 0.083 0.072 0.12  0.087]
 [0.17  0.074 0.072 0.099 0.077 0.146 0.069 0.062 0.094 0.07 ]
 [0.186 0.089 0.079 0.124 0.092 0.149 0.074 0.07  0.102 0.076]
 [0.221 0.105 0.093 0.309 0.155 0.2   0.099 0.071 0.296 0.143]
 [0.198 0.1   0.074 0.213 0.116 0.184 0.091 0.069 0.197 0.108]
 [0.193 0.094 0.111 0.124 0.099 0.172 0.084 0.085 0.145 0.093]
 [0.    0.    0.082 0.    0.031 0.    0.    0.07  0.    0.027]]
-------------------------------------------------------------
std_dev/mean [percentage]:
[[ 47.  14.  12.  21.  14.  39.  12.  10.  18.  12.]
 [ 42.  10.  10.  15.  11.  36.  10.   9.  14.  10.]
 [ 42.  12.  10.  18.  13.  33.  10.   9.  14.  10.]
 [137.  18.  14. 123.  31. 117.  17.  11. 105.  28.]
 [ 53.  15.  10.  37.  17.  47.  13.   9.  33.  16.]
 [122.  16.  18.  24.  17.  84.  14.  13.  27.  16.]
 [  0.   0.  13.   0.   8.   0.   0.  12.   0.   7.]]
-------------------------------------
Current folder: C:\Users\Javier\Dropbox\c_sldl_1_2_16
-------------------------------------
----- RESULTS ------
-------------------------------------
Window size (sec):  16.0
step (sec):  8.0
overlap:  True
perc. of overlap:  50.0
overlap duration (sec):  8.0
Number of windows / instances:  147
Elapsed time: 984.7436746676763 minutes
Elapsed time: 16.412394577794604 hours
