2024-03-21 18:01:52.409284: I tensorflow/core/util/port.cc:113] oneDNN custom operations are on. You may see slightly different numerical results due to floating-point round-off errors from different computation orders. To turn them off, set the environment variable `TF_ENABLE_ONEDNN_OPTS=0`.
2024-03-21 18:01:56.339482: I tensorflow/core/util/port.cc:113] oneDNN custom operations are on. You may see slightly different numerical results due to floating-point round-off errors from different computation orders. To turn them off, set the environment variable `TF_ENABLE_ONEDNN_OPTS=0`.
2024-03-21 18:02:06.310251: I tensorflow/core/platform/cpu_feature_guard.cc:210] This TensorFlow binary is optimized to use available CPU instructions in performance-critical operations.
To enable the following instructions: AVX2 FMA, in other operations, rebuild TensorFlow with the appropriate compiler flags.
    
    
-------------------------------
participant:  1
-------------------------------
    
    
participant:  1
corriendo en PC gamer:
Window size (sec):  30.0
step (sec):  15.0
overlap:  True
perc. of overlap:  50.0
overlap duration (sec):  15.0
Nearest multiple of 16 to 30000 is: 30000
Nearest multiple of 16 to 15000 is: 15008
['gsr_chunks', 'ppg_chunks', 'val_chunks', 'aro_chunks', 'time_chunks', 'tag_chunks', 'video']
C:\Users\Javier\Dropbox\c_sldl_1_2_22\functions.py:880: FutureWarning: ChainedAssignmentError: behaviour will change in pandas 3.0!


[1m1/1[0m [32m━━━━━━━━━━━━━━━━━━━━[0m[37m[0m [1m0s[0m 125ms/step
predicted [0.9352812  0.00509089 0.03750183 0.45698598 0.00831235 0.00462712
 0.48992178 0.8762233  0.82859623 0.8435227  0.34731802 0.7916101
 0.15397628 0.4798841  0.99938416]
predicted [1 0 0 0 0 0 0 1 1 1 0 1 0 0 1]
expected [ True  True False False  True  True  True  True  True False False  True
 False False  True]
accuracy: 0.6666666666666666
confusion matrix: 
[[5 1]
 [4 5]]
              precision    recall  f1-score   support

       False       0.56      0.83      0.67         6
        True       0.83      0.56      0.67         9

    accuracy                           0.67        15
   macro avg       0.69      0.69      0.67        15
weighted avg       0.72      0.67      0.67        15

macro avg f1-score: 0.6666666666666666
macro avg (UAR): 0.6944444444444444
Sensitivity:  0.8333333333333334
Specificity:  0.5555555555555556
g-mean:  0.6804138174397717
-------- Model Performance ----------: 
accuracy:  [0.73333333 0.8        0.53333333 0.66666667 0.6        0.4
 0.46666667 0.4        0.53333333 0.66666667]
gmean:  [0.57735027 0.70710678 0.47140452 0.62360956 0.50917508 0.38490018
 0.43033148 0.30429031 0.52704628 0.68041382]
f1_score:  [0.65909091 0.76190476 0.49760766 0.64114833 0.55       0.38914027
 0.44444444 0.35406699 0.52488688 0.66666667]
UAR:  [0.66666667 0.75       0.5        0.63888889 0.55555556 0.38888889
 0.44444444 0.36111111 0.52777778 0.69444444]
Cohen Kappa score:  [ 0.375       0.54545455  0.          0.28571429  0.11764706 -0.21621622
 -0.11111111 -0.28571429  0.05405405  0.35897436]
arousal and valece = ok
------------- Evaluating model --------------
-------------------------------------
-------------------------------------
participant:  30
-------------------------------------
----- RESULTS ------
-------------------------------------
Window size (sec):  30.0
step (sec):  15.008
overlap:  True
perc. of overlap:  49.973333333333336
overlap duration (sec):  14.992
Number of windows / instances:  72
-rows: alg : KNN = 0; DT = 1; RF = 2; SVM = 3; GBM = 4; BDDAE = 5; DUMMY = 5
columns:
'val_cohen','val_uar', 'val_acc', 'val_gm',  'val_f1',  'aro_cohen','aro_uar', 'aro_acc', 'aro_gm',  'aro_f1'
-------------------------------------------------------------
  v_c   v_u   v_a   v_g   v_f1  a_c   a_u   a_a   a_g   a_f1
[[0.918 0.962 0.957 0.957 0.957 0.494 0.748 0.789 0.685 0.738]
 [0.698 0.888 0.916 0.805 0.882 0.662 0.852 0.859 0.821 0.84 ]
 [0.761 0.909 0.904 0.879 0.899 0.609 0.812 0.834 0.799 0.813]
 [0.    0.5   0.625 0.    0.384 0.    0.5   0.654 0.    0.394]
 [0.752 0.871 0.902 0.816 0.867 0.572 0.77  0.82  0.738 0.777]
 [0.112 0.553 0.58  0.522 0.549 0.122 0.56  0.62  0.504 0.55 ]
 [0.    0.5   0.625 0.    0.384 0.    0.5   0.654 0.    0.394]]
participant performance loaded
    
    
-------------------------------
LAST participant's saved data: 
30
-------------------------------
    
    
---------------------------
KNN performance:
[[0.59495784 0.79583333 0.80535714 0.7747218  0.79079365 0.19196078
  0.58833333 0.79107143 0.30466691 0.57813686]
 [0.45212821 0.73333333 0.72321429 0.71292868 0.71678571 0.39136888
  0.695      0.72142857 0.60400331 0.66570707]
 [0.38047998 0.68416667 0.70892857 0.64088356 0.67503968 0.47972464
  0.74166667 0.74464286 0.73009649 0.73563492]
 [0.49192754 0.74166667 0.75178571 0.72535117 0.74079365 0.09610405
  0.535      0.68035714 0.26915093 0.50191503]
 [0.71147092 0.84       0.87857143 0.81713503 0.85090909 0.50874582
  0.75833333 0.74821429 0.73379883 0.74142857]
 [0.50443536 0.75       0.75178571 0.70184038 0.72933983 0.61527462
  0.8125     0.80357143 0.79198677 0.79670635]
 [0.38366891 0.69416667 0.73571429 0.58860795 0.67       0.56537607
  0.7875     0.77857143 0.76515593 0.77071429]
 [0.78516624 0.895      0.91428571 0.88046019 0.88969697 0.66854259
  0.83833333 0.83214286 0.77516153 0.8100974 ]
 [0.07509804 0.53666667 0.70714286 0.19850595 0.49270563 0.21179475
  0.5975     0.69642857 0.40729715 0.58005051]
 [0.39665481 0.7        0.70714286 0.65227271 0.68781746 0.05895272
  0.52916667 0.53571429 0.42586368 0.50436508]
 [0.43103707 0.715      0.76607143 0.62312018 0.70560606 0.55070014
  0.765      0.80357143 0.68850096 0.75518759]
 [0.61377648 0.79416667 0.83035714 0.76508594 0.79896465 0.51418972
  0.76166667 0.77142857 0.74457538 0.75063492]
 [0.41167179 0.71416667 0.70892857 0.66247016 0.69047619 0.18688781
  0.5925     0.60892857 0.53107594 0.57654762]
 [0.05590322 0.52583333 0.59642857 0.38062759 0.51348485 0.4777094
  0.74583333 0.73214286 0.72401225 0.72615079]
 [0.23269526 0.62       0.7        0.44888188 0.59974747 0.58451616
  0.80666667 0.79285714 0.79793822 0.78706349]
 [0.2066897  0.6025     0.65178571 0.45545127 0.57696803 0.42536232
  0.715      0.79285714 0.5101534  0.67492979]
 [0.492      0.7525     0.74464286 0.74738839 0.74265873 0.33343459
  0.66166667 0.69464286 0.59833403 0.65350649]
 [       nan 0.65       0.85       0.27559289 0.5754662  0.57842038
  0.78333333 0.81785714 0.69905824 0.76624459]
 [0.39150371 0.68833333 0.75357143 0.60697374 0.67876263 0.47760842
  0.73833333 0.73928571 0.70321468 0.72277778]
 [0.27187614 0.63166667 0.73571429 0.44646996 0.61892496 0.35411338
  0.67916667 0.71964286 0.56959256 0.65150072]
 [0.03263815 0.53       0.74821429 0.15236034 0.48186647 0.28558454
  0.64583333 0.64285714 0.61318629 0.62619048]
 [0.44798814 0.725      0.73571429 0.67609491 0.7143254  0.6515394
  0.81833333 0.85178571 0.8021303  0.82358586]
 [0.22318351 0.61       0.63571429 0.54015297 0.60438312 0.21827548
  0.60833333 0.7375     0.40970907 0.58552614]
 [0.10757322 0.55       0.55714286 0.50875002 0.53314935 0.55731458
  0.77916667 0.78928571 0.70886586 0.75795094]
 [0.56966713 0.7825     0.79285714 0.76530538 0.77916667 0.77489855
  0.8875     0.88928571 0.88287864 0.88642857]
 [0.19178714 0.6        0.60892857 0.48509536 0.56378427 0.43136698
  0.71666667 0.71964286 0.69549951 0.70623016]
 [0.57983193 0.765      0.85       0.68684283 0.77742424 0.41103922
  0.70833333 0.71607143 0.66378282 0.69690476]
 [0.10547453 0.55416667 0.57678571 0.44312935 0.52237013 0.57243867
  0.7825     0.79285714 0.72583532 0.76069264]
 [0.20170935 0.60083333 0.6375     0.50445716 0.58291126 0.37516756
  0.69083333 0.72142857 0.58913149 0.66832251]
 [0.91815385 0.9625     0.95714286 0.95731322 0.95654762 0.49380539
  0.74833333 0.78928571 0.68513851 0.73818543]]
KNN mean:
[0.38831545 0.6915     0.73738095 0.59414237 0.67536233 0.43474059
 0.71727778 0.7485119  0.6383265  0.69997724]
---------------------------
---------------------------
DT performance:
[[0.35870444 0.64583333 0.6625     0.5730399  0.63202381 0.18576169
  0.66333333 0.79107143 0.5114159  0.65754634]
 [0.72648718 0.84166667 0.83571429 0.8314696  0.83285714 0.38735456
  0.6425     0.68392857 0.56923042 0.60553585]
 [0.42779487 0.61916667 0.62142857 0.66087607 0.60718254 0.48815108
  0.7        0.69107143 0.67901112 0.68349206]
 [0.28190656 0.57916667 0.58392857 0.59585429 0.55980159 0.17303174
  0.60166667 0.68035714 0.40563855 0.54664336]
 [0.5758221  0.81833333 0.83392857 0.78481058 0.81136364 0.41567336
  0.73333333 0.71964286 0.70840813 0.71301587]
 [0.42087757 0.7125     0.70892857 0.66089201 0.69734127 0.40261353
  0.7625     0.75714286 0.71462644 0.74833333]
 [0.44339526 0.67833333 0.70714286 0.67312331 0.66788961 0.39397436
  0.725      0.72321429 0.73042016 0.71183983]
 [0.88721228 0.94       0.95714286 0.92030679 0.9420202  0.7012824
  0.84833333 0.8625     0.81406515 0.85126623]
 [0.43250639 0.67166667 0.75       0.58351835 0.65762987 0.43501973
  0.70333333 0.73571429 0.64488136 0.6942785 ]
 [0.30812189 0.675      0.67678571 0.66344292 0.64572872 0.07421622
  0.55416667 0.56607143 0.43577689 0.5275    ]
 [0.23317164 0.59666667 0.625      0.59673055 0.58763348 0.45633561
  0.755      0.7875     0.68440737 0.75940115]
 [0.70181366 0.82583333 0.84821429 0.8440588  0.82505772 0.37877847
  0.705      0.725      0.55386613 0.6806746 ]
 [0.47565613 0.76       0.76607143 0.68050223 0.73580808 0.17451264
  0.56416667 0.56964286 0.48028512 0.54285714]
 [0.11016201 0.56166667 0.6125     0.50348443 0.52744949 0.39624212
  0.63333333 0.63392857 0.66905937 0.6168254 ]
 [0.1636378  0.59       0.6625     0.47571437 0.58727273 0.35032908
  0.695      0.71964286 0.69028635 0.69224026]
 [0.03638965 0.6075     0.65       0.22871561 0.56215201 0.44160292
  0.73333333 0.77857143 0.70086369 0.7123088 ]
 [0.64126087 0.81583333 0.82321429 0.84849401 0.81072872 0.35553272
  0.70666667 0.71071429 0.64816711 0.68904762]
 [0.01       0.58214286 0.80535714 0.09258201 0.46910256 0.52046947
  0.7325     0.76607143 0.66069828 0.71562771]
 [0.38334673 0.68166667 0.76607143 0.66986892 0.66959596 0.56652174
  0.79583333 0.80357143 0.79561253 0.79281746]
 [0.25424848 0.58666667 0.65535714 0.52913707 0.57392496 0.45848679
  0.71416667 0.75178571 0.6231489  0.70208153]
 [0.06398693 0.485      0.64821429 0.20466691 0.4631019  0.12359532
  0.57916667 0.56964286 0.53638085 0.55358586]
 [0.44595095 0.70833333 0.70892857 0.70551732 0.69180014 0.42374866
  0.70833333 0.72857143 0.68692183 0.70229798]
 [0.29027477 0.59       0.61071429 0.53470048 0.57833333 0.29401935
  0.67166667 0.70892857 0.66483815 0.64485931]
 [0.29603699 0.625      0.62142857 0.5564696  0.61765873 0.36331925
  0.73333333 0.73928571 0.65795311 0.70617965]
 [0.51039262 0.74083333 0.73392857 0.74823132 0.72111111 0.43189855
  0.71666667 0.71785714 0.70696799 0.71321429]
 [0.2859019  0.6625     0.66607143 0.50825137 0.64924603 0.35005797
  0.7        0.70714286 0.60358931 0.68896825]
 [0.59530751 0.80166667 0.84642857 0.75934165 0.81181818 0.43208138
  0.7625     0.76071429 0.66655444 0.75412698]
 [0.17133649 0.52166667 0.55178571 0.50103525 0.49372294 0.47075409
  0.715      0.72321429 0.7500222  0.70484127]
 [0.36633668 0.68166667 0.68214286 0.61410607 0.66404762 0.24974425
  0.65       0.68392857 0.52701737 0.6207684 ]
 [0.69837952 0.8875     0.91607143 0.80510237 0.88172439 0.66163783
  0.85166667 0.85892857 0.82147115 0.84039322]]
DT mean:
[0.38654733 0.68312698 0.71791667 0.61180147 0.66583762 0.3852249
 0.70191667 0.72184524 0.64471951 0.68575228]
---------------------------
---------------------------
RF performance:
[[ 0.6558274   0.775       0.79107143  0.76066078  0.76813492  0.26196078
   0.72166667  0.86071429  0.37412981  0.72118104]
 [ 0.42767559  0.79583333  0.79464286  0.77048155  0.78797619  0.25970919
   0.71916667  0.71785714  0.75379561  0.67646104]
 [ 0.59726198  0.75666667  0.7625      0.66720129  0.75505772  0.44611037
   0.7125      0.70535714  0.7335422   0.69313492]
 [ 0.39429117  0.7625      0.76607143  0.6374557   0.7556746   0.11085251
   0.46666667  0.65178571  0.37070608  0.43361472]
 [ 0.63387004  0.84416667  0.875       0.78623635  0.85265152  0.57533668
   0.75833333  0.74642857  0.68873375  0.7347619 ]
 [ 0.47607915  0.73333333  0.73571429  0.75113083  0.72972222  0.55645411
   0.775       0.77321429  0.8487705   0.75134921]
 [ 0.34178484  0.71333333  0.72857143  0.52498512  0.69472222  0.42592385
   0.73333333  0.72321429  0.68011445  0.71416667]
 [ 0.83913043  0.905       0.92857143  0.82030679  0.90525253  0.56398295
   0.75083333  0.77857143  0.84849695  0.73777778]
 [ 0.26658142  0.66333333  0.73571429  0.34525204  0.63186869  0.17103555
   0.61333333  0.68035714  0.5187835   0.59109307]
 [ 0.40129715  0.6125      0.60892857  0.53464244  0.58092713  0.15478524
   0.53333333  0.52321429  0.51596844  0.50119048]
 [ 0.33328443  0.61416667  0.66785714  0.55321388  0.60681818  0.37321516
   0.7675      0.78928571  0.74785207  0.76444444]
 [ 0.81255901  0.9025      0.91785714  0.88919267  0.90606782  0.46969626
   0.7325      0.75357143  0.73529763  0.70099206]
 [ 0.42145977  0.67416667  0.69464286  0.60076829  0.63729076  0.27529186
   0.6075      0.62321429  0.51337492  0.59496032]
 [-0.01308551  0.62        0.69821429  0.3700027   0.59444444  0.41125587
   0.72916667  0.71785714  0.58639137  0.70662698]
 [ 0.29537169  0.67833333  0.7375      0.5646284   0.65699495  0.32652253
   0.64833333  0.68214286  0.73794394  0.63673882]
 [ 0.10981082  0.6125      0.6375      0.45060537  0.59042929  0.59856935
   0.75166667  0.79285714  0.70195     0.73061328]
 [ 0.74402899  0.85916667  0.8625      0.87214595  0.85563492  0.37444634
   0.74166667  0.75178571  0.6694416   0.73634921]
 [        nan  0.76309524  0.89107143  0.37559289  0.71858974  0.53494907
   0.77166667  0.80714286  0.61685271  0.76398629]
 [ 0.52875566  0.725       0.79285714  0.74019789  0.72439394  0.64532016
   0.73333333  0.75        0.73566078  0.71652237]
 [ 0.52109122  0.625       0.7         0.63172269  0.59873016  0.13622213
   0.71833333  0.76607143  0.62464244  0.72187951]
 [ 0.0554902   0.58166667  0.77678571  0.15453265  0.5495005   0.24415719
   0.59583333  0.6         0.45452773  0.58714286]
 [ 0.43121445  0.675       0.67678571  0.63142053  0.66083333  0.64141905
   0.79333333  0.83571429  0.77117974  0.79858586]
 [ 0.23713286  0.55        0.58035714  0.47363857  0.53916667  0.30527707
   0.63333333  0.72321429  0.50157475  0.62388112]
 [ 0.3088495   0.625       0.61964286  0.68275509  0.61039683  0.61054515
   0.74583333  0.75178571  0.70637146  0.71955267]
 [ 0.41567048  0.80333333  0.80714286  0.70115085  0.79666667  0.49691787
   0.8125      0.80892857  0.814163    0.80361111]
 [ 0.15177467  0.62916667  0.625       0.50298226  0.61269841  0.28547475
   0.65833333  0.66785714  0.78883933  0.64654762]
 [ 0.6295432   0.75        0.81071429  0.78244665  0.75262626  0.4537293
   0.74166667  0.73571429  0.69133373  0.72251443]
 [ 0.08912119  0.60166667  0.63392857  0.43891563  0.57294012  0.53399293
   0.78166667  0.76428571  0.71796413  0.75615079]
 [ 0.42951918  0.50166667  0.54107143  0.6909014   0.47485043  0.40898682
   0.71583333  0.75178571  0.57034481  0.69997475]
 [ 0.76105541  0.90916667  0.90357143  0.87876937  0.89876984  0.60861761
   0.8125      0.83392857  0.79878374  0.81303391]]
RF mean:
[0.42401539 0.70874206 0.74339286 0.61946455 0.69399437 0.40869192
 0.70922222 0.73559524 0.66058437 0.69329464]
---------------------------
---------------------------
SVM performance:
[[ 0.          0.5         0.52857143  0.          0.34484848  0.
   0.5         0.79285714  0.          0.44148352]
 [ 0.          0.5         0.55714286  0.          0.35757576  0.
   0.5         0.625       0.          0.38374126]
 [ 0.28878078  0.63333333  0.69285714  0.39423942  0.57767677  0.46194582
   0.725       0.73214286  0.66481604  0.70888889]
 [ 0.          0.5         0.54285714  0.          0.35121212  0.
   0.5         0.75        0.          0.42802198]
 [ 0.43204979  0.69166667  0.77857143  0.58245683  0.69080808  0.54339539
   0.775       0.76428571  0.73703389  0.75126984]
 [ 0.          0.5         0.54285714  0.          0.35121212  0.65019658
   0.83333333  0.81785714  0.81033712  0.8122619 ]
 [ 0.          0.5         0.63928571  0.          0.38904429  0.12865613
   0.5625      0.58214286  0.21009536  0.45520202]
 [ 0.05882353  0.525       0.71071429  0.07071068  0.44737762  0.14545455
   0.56666667  0.65357143  0.23094011  0.48768065]
 [ 0.          0.5         0.72142857  0.          0.41904762  0.
   0.5         0.66785714  0.          0.39965035]
 [ 0.          0.5         0.54285714  0.          0.35121212  0.
   0.5         0.54285714  0.          0.35121212]
 [ 0.          0.5         0.66785714  0.          0.39965035  0.
   0.5         0.625       0.          0.38374126]
 [ 0.          0.5         0.625       0.          0.38374126  0.
   0.5         0.63928571  0.          0.38904429]
 [ 0.          0.5         0.58214286  0.          0.36783217  0.
   0.5         0.58214286  0.          0.36783217]
 [ 0.          0.5         0.68214286  0.          0.40495338 -0.01287879
   0.49583333  0.5         0.07071068  0.36022727]
 [ 0.          0.5         0.69642857  0.          0.41025641  0.
   0.5         0.625       0.          0.38374126]
 [ 0.          0.5         0.61071429  0.          0.37843823  0.
   0.5         0.65357143  0.          0.39434732]
 [ 0.          0.5         0.58214286  0.          0.36783217  0.
   0.5         0.59642857  0.          0.3731352 ]
 [        nan  0.6         0.88928571  0.2         0.57025641  0.
   0.5         0.61071429  0.          0.37843823]
 [ 0.          0.5         0.69642857  0.          0.41025641  0.
   0.5         0.56964286  0.          0.36270396]
 [ 0.          0.5         0.69642857  0.          0.41025641  0.
   0.5         0.63928571  0.          0.38904429]
 [ 0.          0.5         0.79285714  0.          0.44148352  0.
   0.5         0.52857143  0.          0.34484848]
 [ 0.          0.5         0.52857143  0.          0.34484848  0.
   0.5         0.66785714  0.          0.39965035]
 [ 0.          0.5         0.59642857  0.          0.3731352   0.
   0.5         0.73571429  0.          0.4235348 ]
 [ 0.          0.5         0.52857143  0.          0.34484848  0.37852437
   0.68333333  0.69107143  0.50679327  0.62672078]
 [ 0.          0.5         0.58214286  0.          0.36783217  0.
   0.5         0.52857143  0.          0.34484848]
 [ 0.          0.5         0.52857143  0.          0.34484848  0.10326087
   0.55        0.59821429  0.18164966  0.44565657]
 [ 0.          0.5         0.69642857  0.          0.41025641  0.46418006
   0.73333333  0.73571429  0.69543248  0.71587302]
 [ 0.          0.5         0.61071429  0.          0.37843823  0.
   0.5         0.59642857  0.          0.3731352 ]
 [ 0.          0.5         0.59642857  0.          0.3731352   0.
   0.5         0.59642857  0.          0.3731352 ]
 [ 0.          0.5         0.625       0.          0.38374126  0.
   0.5         0.65357143  0.          0.39434732]]
SVM mean:
[0.02688462 0.515      0.63571429 0.04158023 0.40486852 0.0954245
 0.5475     0.64339286 0.13692695 0.44811393]
---------------------------
---------------------------
GBM performance:
[[ 0.35521182  0.6875      0.70535714  0.59797287  0.67437951  0.14333333
   0.61666667  0.83392857  0.23395623  0.58580586]
 [ 0.5238495   0.76666667  0.76428571  0.75329105  0.75730159  0.17849498
   0.59833333  0.62678571  0.43063987  0.54565851]
 [ 0.44064728  0.715       0.73392857  0.69076192  0.71303391  0.39058351
   0.65833333  0.65        0.66283152  0.63638889]
 [ 0.31398814  0.64166667  0.65357143  0.58710092  0.6315873  -0.01666667
   0.49166667  0.73571429  0.          0.4235348 ]
 [ 0.70833427  0.8375      0.87678571  0.81481604  0.84941919  0.475356
   0.74583333  0.73392857  0.69689802  0.72246032]
 [ 0.39712543  0.7         0.69464286  0.66380822  0.6790873   0.35773839
   0.69583333  0.6875      0.658964    0.67670635]
 [ 0.27648771  0.635       0.70892857  0.45466486  0.6014899   0.47922222
   0.75833333  0.75        0.7343547   0.74128427]
 [ 0.72838875  0.89        0.92857143  0.73086408  0.86777778  0.48823893
   0.73583333  0.7625      0.71773225  0.73654401]
 [ 0.08294118  0.545       0.72142857  0.16324555  0.49010823  0.20020626
   0.5875      0.69285714  0.34889533  0.56636364]
 [ 0.32989967  0.67916667  0.67678571  0.55855708  0.64862554  0.15945996
   0.57916667  0.59107143  0.45158375  0.54469697]
 [ 0.28221228  0.61833333  0.7125      0.45201851  0.5976246   0.37268235
   0.69666667  0.73214286  0.62420735  0.69073232]
 [ 0.66607983  0.82583333  0.84821429  0.80179382  0.82505772  0.39304065
   0.68083333  0.73928571  0.57536239  0.65382395]
 [ 0.49193064  0.7325      0.75        0.6626573   0.70902237  0.18775628
   0.57833333  0.61071429  0.410295    0.54969697]
 [ 0.03752918  0.51333333  0.63928571  0.21033838  0.46160173  0.46318749
   0.72083333  0.71785714  0.69454821  0.70543651]
 [ 0.14774543  0.56666667  0.69464286  0.32564749  0.5370979   0.28197674
   0.65916667  0.70535714  0.49569137  0.65237013]
 [-0.06451451  0.46916667  0.56607143  0.04082483  0.38083528  0.38834213
   0.68416667  0.76428571  0.54405159  0.66323232]
 [ 0.71055901  0.86916667  0.87321429  0.8628374   0.86861111  0.16174721
   0.575       0.61071429  0.49753039  0.53652958]
 [        nan  0.56904762  0.84642857  0.1         0.5074359   0.40464739
   0.71333333  0.75        0.6420861   0.70057359]
 [ 0.28921784  0.62833333  0.75178571  0.47419511  0.61439394  0.54232016
   0.75833333  0.775       0.71258977  0.73723665]
 [ 0.23077185  0.59833333  0.71071429  0.40403114  0.58489899  0.33535373
   0.66333333  0.7375      0.5724973   0.66271284]
 [ 0.15499109  0.58333333  0.76428571  0.25236034  0.53701965  0.01375758
   0.53333333  0.54464286  0.35872225  0.49779221]
 [ 0.35837124  0.69583333  0.70892857  0.62122702  0.6732684   0.58226863
   0.76333333  0.83392857  0.72935999  0.78383838]
 [ 0.05658255  0.52666667  0.58392857  0.2788274   0.45533023  0.13058824
   0.52        0.71964286  0.21213203  0.48031635]
 [ 0.31891564  0.6625      0.65357143  0.63274457  0.6393254   0.56817317
   0.7875      0.78035714  0.73457541  0.7666811 ]
 [ 0.18622247  0.6025      0.64821429  0.42484486  0.56606061  0.50128428
   0.75        0.75        0.72140918  0.74281746]
 [ 0.42494818  0.70833333  0.72142857  0.61773225  0.67967172  0.32026685
   0.64583333  0.65178571  0.59863643  0.62861111]
 [ 0.57518423  0.765       0.84821429  0.68547295  0.77393939  0.54556856
   0.74583333  0.74642857  0.71086661  0.73543651]
 [-0.0505424   0.48666667  0.56428571  0.19102446  0.43484848  0.42096951
   0.71        0.73571429  0.62957701  0.68685426]
 [ 0.32719418  0.67583333  0.70535714  0.56939869  0.65515152  0.33256635
   0.65166667  0.69642857  0.5436547   0.63685426]
 [ 0.75222567  0.87083333  0.90178571  0.81565965  0.86684343  0.57216167
   0.77        0.81964286  0.73820854  0.77747475]]
GBM mean:
[0.34663787 0.66885714 0.73190476 0.51462396 0.64269495 0.34582086
 0.66916667 0.71619048 0.55606191 0.64894883]
---------------------------
---------------------------
BDDAE performance:
[[-0.0367795   0.48125     0.48        0.46871127  0.47401323  0.26150794
   0.63333333  0.77333333  0.51421421  0.62595921]
 [ 0.22236208  0.61160714  0.61333333  0.60228009  0.60734172  0.57379805
   0.79722222  0.78666667  0.78062915  0.77919019]
 [ 0.11180486  0.55833333  0.56666667  0.51523074  0.54513443  0.08499685
   0.54107143  0.54666667  0.5110796   0.52895634]
 [ 0.0800723   0.53928571  0.54666667  0.51066826  0.529106    0.25329648
   0.61704545  0.75333333  0.47552476  0.61224464]
 [ 0.44960902  0.725       0.74666667  0.71277459  0.71948849  0.25268944
   0.62857143  0.62        0.60077619  0.61072772]
 [ 0.44414609  0.71964286  0.72666667  0.7043745   0.71695288 -0.0908422
   0.45446429  0.44666667  0.39327024  0.42094771]
 [ 0.09996019  0.55        0.60666667  0.49051458  0.54397284  0.08370795
   0.54107143  0.55333333  0.47056963  0.51212658]
 [ 0.32662003  0.66        0.70666667  0.62580456  0.65688885  0.11458821
   0.55555556  0.57333333  0.52900867  0.54905615]
 [ 0.36732497  0.66818182  0.79333333  0.53098858  0.66252363  0.23449432
   0.605       0.72666667  0.33637094  0.5672652 ]
 [ 0.0355356   0.51785714  0.52        0.50601941  0.51258999  0.21940044
   0.60892857  0.61333333  0.59169119  0.60258789]
 [-0.13933066  0.435       0.54666667  0.13691019  0.39322101  0.15642619
   0.57222222  0.62        0.47665291  0.55455123]
 [ 0.16844463  0.58611111  0.6         0.56964033  0.5802205   0.46663873
   0.745       0.74666667  0.73767387  0.72831528]
 [ 0.03785994  0.51944444  0.53333333  0.4951259   0.50963893  0.19561169
   0.6         0.60666667  0.59072188  0.59333626]
 [-0.11261056  0.44        0.49333333  0.3600555   0.42597642  0.43228652
   0.71339286  0.72        0.69737604  0.71031126]
 [-0.17471543  0.415       0.49333333  0.23375381  0.39044305  0.2583291
   0.62777778  0.64        0.61126497  0.62163473]
 [ 0.07237817  0.53611111  0.55333333  0.50907423  0.52734058  0.05019528
   0.525       0.62        0.2737972   0.47453205]
 [ 0.43300083  0.72222222  0.72        0.70350925  0.70762491  0.1311427
   0.55555556  0.60666667  0.48602803  0.54518284]
 [ 0.279715    0.64423077  0.86        0.4356418   0.62853643  0.27536302
   0.64166667  0.65333333  0.61097383  0.62739424]
 [ 0.01600582  0.505       0.54        0.48380602  0.49907162  0.21054721
   0.61111111  0.60666667  0.59241414  0.59481003]
 [ 0.11891011  0.555       0.62        0.50551187  0.55279021 -0.10670168
   0.45        0.56        0.18662618  0.41507558]
 [-0.06085119  0.4625      0.64        0.21694657  0.45816061  0.38579264
   0.69196429  0.69333333  0.68828479  0.69150309]
 [ 0.09782154  0.54821429  0.56        0.50003768  0.53105584  0.09020673
   0.54        0.62666667  0.40934482  0.52566351]
 [ 0.12096232  0.56111111  0.57333333  0.5507082   0.55768775  0.55777045
   0.75681818  0.85333333  0.68027985  0.7681633 ]
 [ 0.18005134  0.58928571  0.59333333  0.57082119  0.58303751  0.22006274
   0.60982143  0.61333333  0.58911245  0.60154322]
 [-0.03996468  0.48055556  0.5         0.42847335  0.4690527   0.21026377
   0.60267857  0.60666667  0.57778135  0.59366692]
 [ 0.26359484  0.63035714  0.64        0.58820286  0.61573553  0.16161655
   0.57946429  0.59333333  0.4995054   0.55652861]
 [ 0.54395534  0.765       0.80666667  0.7449624   0.76945527  0.37753777
   0.69196429  0.68666667  0.65839753  0.67263934]
 [-0.11333856  0.44444444  0.46666667  0.36770176  0.43104853  0.29341052
   0.63611111  0.68666667  0.56533308  0.62592925]
 [ 0.42521758  0.71666667  0.72        0.70572432  0.70803975  0.46369289
   0.72222222  0.75333333  0.69598506  0.72504403]
 [ 0.11238027  0.55277778  0.58        0.52156283  0.54889569  0.12155058
   0.56        0.62        0.50401479  0.54998113]]
BDDAE mean:
[0.14433808 0.57133968 0.61155556 0.50985122 0.56183483 0.2313127
 0.61383448 0.65022222 0.54449009 0.59949558]
---------------------------
---------------------------
DUMMY performance:
[[0.         0.5        0.52857143 0.         0.34484848 0.
  0.5        0.79285714 0.         0.44148352]
 [0.         0.5        0.55714286 0.         0.35757576 0.
  0.5        0.625      0.         0.38374126]
 [0.         0.5        0.58214286 0.         0.36783217 0.
  0.5        0.52857143 0.         0.34484848]
 [0.         0.5        0.54285714 0.         0.35121212 0.
  0.5        0.75       0.         0.42802198]
 [0.         0.5        0.63928571 0.         0.38904429 0.
  0.5        0.52857143 0.         0.34484848]
 [0.         0.5        0.54285714 0.         0.35121212 0.
  0.5        0.44285714 0.         0.30666667]
 [0.         0.5        0.63928571 0.         0.38904429 0.
  0.5        0.52857143 0.         0.34484848]
 [0.         0.5        0.69642857 0.         0.41025641 0.
  0.5        0.59642857 0.         0.3731352 ]
 [0.         0.5        0.72142857 0.         0.41904762 0.
  0.5        0.66785714 0.         0.39965035]
 [0.         0.5        0.54285714 0.         0.35121212 0.
  0.5        0.54285714 0.         0.35121212]
 [0.         0.5        0.66785714 0.         0.39965035 0.
  0.5        0.625      0.         0.38374126]
 [0.         0.5        0.625      0.         0.38374126 0.
  0.5        0.63928571 0.         0.38904429]
 [0.         0.5        0.58214286 0.         0.36783217 0.
  0.5        0.58214286 0.         0.36783217]
 [0.         0.5        0.68214286 0.         0.40495338 0.
  0.5        0.51428571 0.         0.33848485]
 [0.         0.5        0.69642857 0.         0.41025641 0.
  0.5        0.625      0.         0.38374126]
 [0.         0.5        0.61071429 0.         0.37843823 0.
  0.5        0.65357143 0.         0.39434732]
 [0.         0.5        0.58214286 0.         0.36783217 0.
  0.5        0.59642857 0.         0.3731352 ]
 [       nan 0.6        0.88928571 0.2        0.57025641 0.
  0.5        0.61071429 0.         0.37843823]
 [0.         0.5        0.69642857 0.         0.41025641 0.
  0.5        0.56964286 0.         0.36270396]
 [0.         0.5        0.69642857 0.         0.41025641 0.
  0.5        0.63928571 0.         0.38904429]
 [0.         0.5        0.79285714 0.         0.44148352 0.
  0.5        0.52857143 0.         0.34484848]
 [0.         0.5        0.52857143 0.         0.34484848 0.
  0.5        0.66785714 0.         0.39965035]
 [0.         0.5        0.59642857 0.         0.3731352  0.
  0.5        0.73571429 0.         0.4235348 ]
 [0.         0.5        0.52857143 0.         0.34484848 0.
  0.5        0.52857143 0.         0.34484848]
 [0.         0.5        0.58214286 0.         0.36783217 0.
  0.5        0.52857143 0.         0.34484848]
 [0.         0.5        0.52857143 0.         0.34484848 0.
  0.5        0.55714286 0.         0.35757576]
 [0.         0.5        0.69642857 0.         0.41025641 0.
  0.5        0.51428571 0.         0.33848485]
 [0.         0.5        0.61071429 0.         0.37843823 0.
  0.5        0.59642857 0.         0.3731352 ]
 [0.         0.5        0.59642857 0.         0.3731352  0.
  0.5        0.59642857 0.         0.3731352 ]
 [0.         0.5        0.625      0.         0.38374126 0.
  0.5        0.65357143 0.         0.39434732]]
DUMMY mean:
[0.         0.50333333 0.62690476 0.00666667 0.38657753 0.
 0.5        0.59886905 0.         0.37244594]
---------------------------
Current folder: C:\Users\Javier\Dropbox\c_sldl_1_2_22
-------------------------------------
----- RESULTS from .csv files ------
-------------------------------------
---------------------------
ALG Means: 
-rows: alg : KNN = 0; DT = 1; RF = 2; SVM = 3; GBM = 4; BDDAE = 5; DUMMY = 5
columns:
'val_cohen','val_uar', 'val_acc', 'val_gm',  'val_f1',  'aro_cohen','aro_uar', 'aro_acc', 'aro_gm',  'aro_f1'
-------------------------------------------------------------
  v_c   v_u   v_a   v_g   v_f1  a_c   a_u   a_a   a_g   a_f1
[[0.388 0.693 0.733 0.605 0.679 0.43  0.715 0.746 0.636 0.698]
 [0.387 0.683 0.718 0.612 0.666 0.385 0.702 0.722 0.645 0.686]
 [0.424 0.707 0.738 0.628 0.693 0.404 0.707 0.733 0.662 0.691]
 [0.027 0.512 0.627 0.036 0.399 0.099 0.549 0.645 0.142 0.451]
 [0.347 0.672 0.728 0.529 0.647 0.344 0.668 0.715 0.553 0.647]
 [0.144 0.571 0.612 0.51  0.562 0.231 0.614 0.65  0.544 0.599]
 [0.    0.5   0.618 0.    0.38  0.    0.5   0.598 0.    0.372]]
-------------------------------------------------------------
Standard Deviation of each metric:
[[0.221 0.109 0.094 0.182 0.118 0.174 0.089 0.071 0.152 0.093]
 [0.214 0.11  0.1   0.186 0.121 0.141 0.07  0.07  0.102 0.078]
 [0.224 0.109 0.101 0.173 0.118 0.16  0.08  0.072 0.132 0.085]
 [0.093 0.042 0.076 0.126 0.071 0.191 0.096 0.08  0.258 0.131]
 [0.228 0.114 0.093 0.218 0.133 0.168 0.081 0.07  0.183 0.095]
 [0.192 0.096 0.103 0.142 0.1   0.162 0.081 0.085 0.132 0.088]
 [0.    0.    0.069 0.    0.026 0.    0.    0.078 0.    0.03 ]]
-------------------------------------------------------------
std_dev/mean [percentage]:
[[ 57.  16.  13.  30.  17.  40.  12.  10.  24.  13.]
 [ 55.  16.  14.  30.  18.  37.  10.  10.  16.  11.]
 [ 53.  15.  14.  28.  17.  40.  11.  10.  20.  12.]
 [346.   8.  12. 349.  18. 193.  17.  12. 182.  29.]
 [ 66.  17.  13.  41.  21.  49.  12.  10.  33.  15.]
 [133.  17.  17.  28.  18.  70.  13.  13.  24.  15.]
 [  0.   0.  11.   0.   7.   0.   0.  13.   0.   8.]]
-------------------------------------
Current folder: C:\Users\Javier\Dropbox\c_sldl_1_2_22
-------------------------------------
----- RESULTS ------
-------------------------------------
Window size (sec):  30.0
step (sec):  15.008
overlap:  True
perc. of overlap:  49.973333333333336
overlap duration (sec):  14.992
Number of windows / instances:  72
Elapsed time: 1589.6071246147155 minutes
Elapsed time: 26.493452076911925 hours
