2024-05-03 20:07:42.252870: I tensorflow/core/util/port.cc:113] oneDNN custom operations are on. You may see slightly different numerical results due to floating-point round-off errors from different computation orders. To turn them off, set the environment variable `TF_ENABLE_ONEDNN_OPTS=0`.
2024-05-03 20:07:46.219439: I tensorflow/core/util/port.cc:113] oneDNN custom operations are on. You may see slightly different numerical results due to floating-point round-off errors from different computation orders. To turn them off, set the environment variable `TF_ENABLE_ONEDNN_OPTS=0`.
2024-05-03 20:07:56.170397: I tensorflow/core/platform/cpu_feature_guard.cc:210] This TensorFlow binary is optimized to use available CPU instructions in performance-critical operations.
To enable the following instructions: AVX2 FMA, in other operations, rebuild TensorFlow with the appropriate compiler flags.
    
    
-------------------------------
participant:  1
-------------------------------
    
    
participant:  1
corriendo en PC gamer:
Window size (sec):  10.0
step (sec):  5.0
overlap:  True
perc. of overlap:  50.0
overlap duration (sec):  5.0
['gsr_chunks', 'ppg_chunks', 'val_chunks', 'aro_chunks', 'time_chunks', 'tag_chunks', 'video']
C:\Users\Javier\Dropbox\c_sldl_1_2_31\functions.py:880: FutureWarning: ChainedAssignmentError: behaviour will change in pandas 3.0!
You are setting values through chained assignment. Currently this works in certain cases, but when using Copy-on-Write (which will become the default behaviour in pandas 3.0) this will never work to update the original DataFrame or Series, because the intermediate object on which we are setting values will behave as a copy.
A typical example is when you are setting values in a column of a DataFrame, like:


[1m2/2[0m [32m━━━━━━━━━━━━━━━━━━━━[0m[37m[0m [1m0s[0m 79ms/step 
[1m2/2[0m [32m━━━━━━━━━━━━━━━━━━━━[0m[37m[0m [1m0s[0m 79ms/step
predicted [0.33349738 0.24056736 0.60798526 0.7898511  0.40167928 0.6596657
 0.77164906 0.8081173  0.85710514 0.83972114 0.38496983 0.8493066
 0.78347266 0.45905444 0.38606507 0.5143692  0.8445749  0.75923145
 0.8812439  0.7209152  0.6265593  0.34425926 0.83822227 0.77451277
 0.7552727  0.507156   0.51020944 0.2965936  0.12855367 0.47174963
 0.08933047 0.83884156 0.8618637  0.18994245 0.6726061  0.3451675
 0.84392273 0.3488846  0.643602   0.4741925  0.8028454  0.35248584
 0.68042475 0.8006958  0.8547482  0.594319   0.09987885 0.91643
 0.06230406]
predicted [0 0 1 1 0 1 1 1 1 1 0 1 1 0 0 1 1 1 1 1 1 0 1 1 1 1 1 0 0 0 0 1 1 0 1 0 1
 0 1 0 1 0 1 1 1 1 0 1 0]
expected [False False False False False  True  True  True False False  True  True
  True  True False  True  True  True False  True False False  True  True
  True False  True  True  True  True False  True  True False  True  True
  True  True  True  True False  True  True False  True  True False False
 False]
accuracy: 0.6122448979591837
confusion matrix: 
[[ 9 10]
 [ 9 21]]
              precision    recall  f1-score   support

       False       0.50      0.47      0.49        19
        True       0.68      0.70      0.69        30

    accuracy                           0.61        49
   macro avg       0.59      0.59      0.59        49
weighted avg       0.61      0.61      0.61        49

macro avg f1-score: 0.5875055383252105
macro avg (UAR): 0.5868421052631578
Sensitivity:  0.47368421052631576
Specificity:  0.7
g-mean:  0.5758289219624358
-------- Model Performance ----------: 
accuracy:  [0.67346939 0.71428571 0.65306122 0.71428571 0.59183673 0.7755102
 0.59183673 0.46938776 0.53061224 0.6122449 ]
gmean:  [0.59234888 0.61558701 0.580381   0.64072328 0.51978403 0.6766792
 0.45883147 0.42302171 0.51809367 0.57582892]
f1_score:  [0.62878788 0.66372549 0.61165501 0.67518939 0.54963235 0.73063468
 0.51960784 0.44122807 0.51775781 0.58750554]
UAR:  [0.62719298 0.66052632 0.61052632 0.67017544 0.55087719 0.72017544
 0.53157895 0.44122807 0.52017544 0.58684211]
Cohen Kappa score:  [ 0.27001862  0.34790875  0.23225806  0.36126629  0.10583942  0.48222863
  0.06844106 -0.11754386  0.03921569  0.17537644]
arousal and valece = ok
------------- Evaluating model --------------
-------------------------------------
-------------------------------------
participant:  30
-------------------------------------
----- RESULTS ------
-------------------------------------
Window size (sec):  10.0
step (sec):  4.992
overlap:  True
perc. of overlap:  50.08
overlap duration (sec):  5.008
Number of windows / instances:  243
-rows: alg : KNN = 0; DT = 1; RF = 2; SVM = 3; GBM = 4; BDDAE = 5; DUMMY = 5
columns:
'val_cohen','val_uar', 'val_acc', 'val_gm',  'val_f1',  'aro_cohen','aro_uar', 'aro_acc', 'aro_gm',  'aro_f1'
-------------------------------------------------------------
  v_c   v_u   v_a   v_g   v_f1  a_c   a_u   a_a   a_g   a_f1
[[ 0.763  0.888  0.885  0.886  0.881  0.501  0.754  0.77   0.745  0.748]
 [ 0.604  0.79   0.799  0.781  0.789  0.55   0.795  0.819  0.763  0.798]
 [ 0.686  0.878  0.882  0.882  0.876  0.58   0.79   0.806  0.793  0.786]
 [ 0.749  0.876  0.881  0.874  0.874  0.364  0.662  0.741  0.602  0.668]
 [ 0.569  0.781  0.807  0.77   0.788  0.342  0.653  0.741  0.568  0.644]
 [ 0.197  0.592  0.633  0.56   0.593 -0.019  0.491  0.614  0.227  0.443]
 [ 0.     0.5    0.617  0.     0.382  0.     0.5    0.65   0.     0.394]]
last participant performance loaded in numpy array
    
    
-------------------------------
LAST participant's saved data: 
30
-------------------------------
    
    
Saving performance metrics in csv files...
Performance metrics already saved in csv files
---------------------------
KNN performance:
[[0.51047534 0.75573177 0.7575     0.74480993 0.75123161 0.45293104
  0.71432749 0.81483333 0.67093532 0.72269432]
 [0.4546165  0.72816767 0.7285     0.72416751 0.72571749 0.53916566
  0.765      0.78216667 0.75878145 0.76828736]
 [0.45243458 0.7201998  0.7395     0.70234279 0.72175932 0.4557971
  0.72794289 0.7285     0.72161834 0.72510963]
 [0.46117111 0.73044872 0.7325     0.72406888 0.72844396 0.37251512
  0.6805789  0.75366667 0.64654325 0.68221265]
 [0.5404425  0.76126984 0.7905     0.74326714 0.76656963 0.49743675
  0.74801865 0.74916667 0.73521311 0.74352914]
 [0.44779234 0.725      0.72433333 0.72138397 0.7226082  0.7092789
  0.85454545 0.85533333 0.84995718 0.85347296]
 [0.36499792 0.67849206 0.7125     0.63962899 0.67311833 0.3474181
  0.67351399 0.675      0.66644852 0.67085389]
 [0.85479802 0.92082458 0.9385     0.91724125 0.92707779 0.59347636
  0.80547619 0.79833333 0.80039003 0.7936854 ]
 [0.34732998 0.65651261 0.741      0.61348718 0.66780048 0.19102235
  0.59459034 0.67483333 0.5317674  0.58788843]
 [0.52319441 0.76188811 0.76166667 0.75772635 0.75986491 0.3908524
  0.69325258 0.70016667 0.68400218 0.69254873]
 [0.2896088  0.64380952 0.663      0.62452972 0.63909627 0.37885946
  0.68412698 0.71216667 0.66312672 0.68514774]
 [0.6334626  0.81638889 0.83083333 0.80709817 0.81487133 0.58503714
  0.78277778 0.81183333 0.76647353 0.78916352]
 [0.40014226 0.69763237 0.71266667 0.68437896 0.69716996 0.32099057
  0.65730769 0.67466667 0.63410776 0.65370394]
 [0.39021027 0.68708333 0.73583333 0.65860954 0.69009677 0.46825496
  0.73362471 0.7365     0.72513909 0.73093054]
 [0.35543269 0.67279412 0.72483333 0.64775472 0.67324194 0.29441932
  0.64201389 0.68683333 0.61039918 0.64033307]
 [0.38199871 0.68833333 0.70766667 0.67173626 0.68690534 0.45000952
  0.71441993 0.76933333 0.68286294 0.72033281]
 [0.55270337 0.7747619  0.78616667 0.76600617 0.77398125 0.45173798
  0.72190476 0.74066667 0.70525388 0.72155164]
 [0.11203879 0.54392857 0.82766667 0.26671572 0.54740592 0.39116484
  0.69198413 0.71166667 0.67936385 0.6931459 ]
 [0.39893528 0.69795168 0.74433333 0.67859085 0.69721445 0.4874029
  0.74543956 0.74816667 0.73751538 0.74147787]
 [0.29973539 0.64464869 0.70783333 0.59285329 0.64120759 0.31543576
  0.65305556 0.68683333 0.6303746  0.65251332]
 [0.18910347 0.58748538 0.74083333 0.47747851 0.59123224 0.24101636
  0.62051282 0.6215     0.60759081 0.61481331]
 [0.46614476 0.73333333 0.73266667 0.72412646 0.7289088  0.46489881
  0.72861111 0.76483333 0.71161421 0.72999008]
 [0.26873313 0.63034632 0.65016667 0.6064988  0.62671772 0.29837766
  0.63373016 0.765      0.53374923 0.63983776]
 [0.20171026 0.60238928 0.60066667 0.59179854 0.59611187 0.5366967
  0.76527473 0.77366667 0.75842463 0.76666466]
 [0.57021707 0.78198801 0.79033333 0.77576263 0.78370002 0.68680366
  0.84423077 0.84316667 0.83958376 0.84215425]
 [0.50427351 0.74874709 0.75716667 0.73607164 0.74819709 0.50215866
  0.75112804 0.752      0.73512728 0.74418405]
 [0.52062123 0.75249475 0.80366667 0.7315375  0.75763178 0.55524192
  0.77788462 0.7775     0.77537095 0.77671239]
 [0.31495215 0.65305556 0.68766667 0.63600036 0.65512592 0.51394966
  0.75373016 0.77283333 0.73955833 0.75386111]
 [0.25157321 0.62069444 0.667      0.57664861 0.61644205 0.46567636
  0.73324592 0.73316667 0.72750344 0.7300794 ]
 [0.76256054 0.88777778 0.885      0.88584499 0.88053003 0.50109931
  0.75423611 0.7695     0.74525521 0.74754021]]
KNN mean:
[0.42738034 0.71013932 0.74608333 0.68093885 0.709666   0.44863751
 0.72154953 0.74612778 0.70246839 0.72048067]
---------------------------
---------------------------
DT performance:
[[ 0.58986559  0.7731685   0.77316667  0.77606477  0.76952727  0.51385987
   0.74868421  0.80716667  0.70355761  0.74537332]
 [ 0.44681186  0.76633783  0.7655      0.72905905  0.76324604  0.58993699
   0.79388889  0.8065      0.78515087  0.794761  ]
 [ 0.43831826  0.72703297  0.72766667  0.70962518  0.72324914  0.38829495
   0.68892774  0.691       0.65364884  0.68521901]
 [ 0.41564336  0.6955711   0.69583333  0.72287647  0.69010799  0.29808453
   0.65529879  0.71616667  0.62071216  0.64238086]
 [ 0.46982119  0.72801587  0.74483333  0.70621111  0.72838179  0.53221369
   0.79096737  0.79        0.77210735  0.78827015]
 [ 0.37831504  0.68566434  0.68683333  0.66844302  0.68382835  0.60386019
   0.81448135  0.81483333  0.81415839  0.81325279]
 [ 0.48070754  0.7518254   0.76633333  0.70193129  0.75034676  0.3242291
   0.65337995  0.6545      0.64894892  0.6530204 ]
 [ 0.88652176  0.92941176  0.93433333  0.93623546  0.92422587  0.60737336
   0.79595238  0.807       0.79621173  0.79585271]
 [ 0.39732313  0.71875     0.77383333  0.67824071  0.71992018  0.41165544
   0.71081933  0.745       0.69737508  0.70080918]
 [ 0.42364391  0.69921329  0.6995      0.70637832  0.69536114  0.27223366
   0.65516983  0.658       0.61655998  0.65371465]
 [ 0.21185262  0.62896825  0.646       0.56715581  0.62472634  0.4995831
   0.73301587  0.74916667  0.73308687  0.73361006]
 [ 0.52428794  0.75784722  0.78133333  0.75780915  0.75802806  0.39957928
   0.72        0.733       0.68712051  0.71444937]
 [ 0.4827731   0.72883616  0.74116667  0.70350462  0.72881781  0.28428594
   0.64274725  0.65966667  0.6292286   0.64112068]
 [ 0.12219643  0.57368056  0.61333333  0.57506267  0.56944203  0.36979089
   0.68298368  0.68283333  0.67968609  0.67733601]
 [ 0.31963436  0.67791492  0.71683333  0.63834984  0.67170289  0.4578858
   0.70006944  0.72766667  0.70020159  0.69558746]
 [ 0.33820954  0.65333333  0.66266667  0.6424801   0.65042069  0.46433596
   0.75402369  0.77383333  0.70973024  0.74983258]
 [ 0.68310118  0.83666667  0.8395      0.81530978  0.83326236  0.58055949
   0.80404762  0.81083333  0.8140502   0.80152318]
 [ 0.39734824  0.74630952  0.86466667  0.68898711  0.7328171   0.47056055
   0.73047619  0.73583333  0.71711326  0.72546999]
 [ 0.57234508  0.75470063  0.80633333  0.75866353  0.76470413  0.51706364
   0.75782717  0.76066667  0.78104808  0.75598651]
 [ 0.37001482  0.64450572  0.67833333  0.66269408  0.63949451  0.23158066
   0.60006944  0.62233333  0.61545912  0.59677084]
 [ 0.0255325   0.54002924  0.69183333  0.46057657  0.54043398 -0.00240296
   0.51442308  0.5145      0.50300138  0.50960735]
 [ 0.37389273  0.675       0.67483333  0.66002179  0.67079924  0.27833941
   0.66375     0.6905      0.62971208  0.65908569]
 [ 0.30711661  0.6437013   0.655       0.63755886  0.64165607  0.35494235
   0.66785714  0.74016667  0.63564493  0.66897548]
 [ 0.33294071  0.682838    0.68266667  0.66087441  0.67928773  0.40929897
   0.72750749  0.72783333  0.71690938  0.7233683 ]
 [ 0.41208718  0.68920579  0.69116667  0.68374723  0.68506726  0.62138126
   0.8025641   0.80233333  0.79642687  0.80095643]
 [ 0.43920653  0.70914918  0.71466667  0.68459648  0.70634112  0.46072862
   0.75932401  0.762       0.76166204  0.75779661]
 [ 0.42852958  0.69950105  0.75366667  0.71049642  0.70012717  0.51292062
   0.7525641   0.75216667  0.71940685  0.74946853]
 [ 0.11464733  0.58305556  0.609       0.56330395  0.57380911  0.50687916
   0.73880952  0.7535      0.74023912  0.73751489]
 [ 0.3830447   0.69027778  0.7085      0.67606589  0.68698261  0.20707116
   0.64297786  0.641       0.63377614  0.63842303]
 [ 0.60438383  0.79        0.79866667  0.78147839  0.78853758  0.54999284
   0.79520833  0.81883333  0.76296345  0.79765022]]
DT mean:
[0.41233722 0.70601706 0.72993333 0.6887934  0.70315508 0.42387062
 0.71659386 0.73162778 0.70249659 0.71357291]
---------------------------
---------------------------
RF performance:
[[ 0.61581508  0.81590077  0.819       0.78719871  0.81531937  0.40914952
   0.73377193  0.83616667  0.75607642  0.74378695]
 [ 0.57935963  0.84954212  0.84783333  0.77228594  0.84693778  0.62760869
   0.83        0.83533333  0.78504525  0.82722362]
 [ 0.53171053  0.73742258  0.75266667  0.73690885  0.73925426  0.40794185
   0.73141026  0.73216667  0.6757124   0.72828011]
 [ 0.43672839  0.72960373  0.72783333  0.72538505  0.72347241  0.1450349
   0.62168534  0.72383333  0.46615712  0.61763359]
 [ 0.47655986  0.74793651  0.76983333  0.76872014  0.75141813  0.61197672
   0.80469114  0.80666667  0.77381898  0.80409629]
 [ 0.47144429  0.7280303   0.72833333  0.72038556  0.7247433   0.61024085
   0.78438228  0.78583333  0.7869015   0.78134234]
 [ 0.31592121  0.71079365  0.7205      0.66240088  0.70658962  0.49697599
   0.70477855  0.70433333  0.71394275  0.70213705]
 [ 0.88399287  0.95091912  0.955       0.94767614  0.94795733  0.6614976
   0.81960317  0.82683333  0.83965699  0.81677687]
 [ 0.44570575  0.74099265  0.7825      0.654922    0.74026404  0.38557814
   0.6637605   0.72083333  0.61444943  0.6595721 ]
 [ 0.4723401   0.73624709  0.73583333  0.71277021  0.73418505  0.43654749
   0.72604479  0.72866667  0.7057341   0.72040635]
 [ 0.26532341  0.61666667  0.63416667  0.55340874  0.60815157  0.53013443
   0.75039683  0.77033333  0.75454929  0.74984859]
 [ 0.63975275  0.82229167  0.83966667  0.79032433  0.82584031  0.5764831
   0.74833333  0.76983333  0.80416199  0.74493324]
 [ 0.4085103   0.7164985   0.72416667  0.6719236   0.71375998  0.36858183
   0.68862138  0.70766667  0.69061035  0.68746662]
 [ 0.27186076  0.61965278  0.6705      0.56527901  0.61615353  0.50019128
   0.71748252  0.71966667  0.66307547  0.7160488 ]
 [ 0.30787321  0.64427521  0.71516667  0.67404779  0.64134111  0.39186045
   0.64333333  0.67483333  0.6806543   0.63848218]
 [ 0.46683371  0.74293651  0.76183333  0.6872714   0.74533385  0.54070726
   0.73909314  0.77416667  0.74597876  0.74155939]
 [ 0.71640541  0.82547619  0.835       0.83626776  0.82702214  0.63674346
   0.80761905  0.81466667  0.77029358  0.80806658]
 [ 0.40821102  0.66        0.85216667  0.59403065  0.66293795  0.4381759
   0.73071429  0.74566667  0.74353411  0.73143541]
 [ 0.50465779  0.77801996  0.815       0.75820803  0.77930361  0.54982897
   0.76256244  0.769       0.78163963  0.76002251]
 [ 0.48298502  0.67189542  0.72333333  0.69634678  0.67235727  0.26793325
   0.67236111  0.7035      0.60981194  0.67351407]
 [ 0.12141245  0.53859649  0.72066667  0.30388687  0.52766188 -0.0346409
   0.53173077  0.53183333  0.49951667  0.52431113]
 [ 0.46435315  0.68301282  0.68216667  0.6706338   0.67771194  0.51215317
   0.74729167  0.78183333  0.7090738   0.74837033]
 [ 0.19001816  0.63796537  0.65866667  0.64683037  0.63536545  0.3531045
   0.7047619   0.782       0.60837165  0.7100403 ]
 [ 0.44622655  0.71911422  0.72016667  0.73304392  0.71697922  0.51085752
   0.79502498  0.79383333  0.74961035  0.79118444]
 [ 0.52222391  0.7517982   0.76516667  0.74251024  0.75340784  0.64486271
   0.87179487  0.872       0.82634741  0.87033825]
 [ 0.36143398  0.66695804  0.67066667  0.67665681  0.66359362  0.55644912
   0.76534299  0.77016667  0.72812286  0.76316107]
 [ 0.58862704  0.76741071  0.81183333  0.74827439  0.76576935  0.55478996
   0.78173077  0.78116667  0.80863333  0.78036001]
 [ 0.25254083  0.61541667  0.6585      0.5112321   0.614794    0.52008157
   0.7302381   0.7445      0.72828542  0.72583224]
 [ 0.38800999  0.69555556  0.72566667  0.6461816   0.69401986  0.32290174
   0.65183566  0.654       0.66537886  0.64945201]
 [ 0.68584415  0.87777778  0.8815      0.88245213  0.87580883  0.57983825
   0.78979167  0.8065      0.79337968  0.78618581]]
RF mean:
[0.45742271 0.72662358 0.75684444 0.69591546 0.72491515 0.47045298
 0.73500629 0.75559444 0.71595081 0.73339561]
---------------------------
---------------------------
SVM performance:
[[ 0.32767967  0.65835415  0.679       0.5924524   0.63805384  0.
   0.5         0.753       0.          0.42954545]
 [ 0.3767872   0.68603896  0.69516667  0.670762    0.6832577   0.34276265
   0.66        0.70816667  0.61276168  0.65910619]
 [ 0.52547542  0.7481019   0.78166667  0.70835627  0.75104221  0.46428954
   0.73152681  0.733       0.72361121  0.7290756 ]
 [ 0.36450613  0.67753497  0.69166667  0.63775419  0.66710657  0.
   0.5         0.716       0.          0.41721903]
 [ 0.53367843  0.74904762  0.79433333  0.71433734  0.75841259  0.47251228
   0.73583916  0.737       0.71671019  0.72792033]
 [ 0.33113226  0.6645979   0.67083333  0.63902884  0.65556263  0.57360662
   0.78846154  0.78616667  0.78049406  0.78374196]
 [ 0.07615898  0.53166667  0.63033333  0.21209656  0.44968282  0.31462659
   0.65690559  0.65833333  0.65060654  0.65459226]
 [ 0.77465347  0.87949055  0.90516667  0.8736439   0.88677235  0.51279421
   0.74809524  0.77366667  0.73209204  0.75265802]
 [ 0.          0.5         0.69566667  0.          0.41020906  0.
   0.5         0.68733333  0.          0.40728223]
 [ 0.38803423  0.69344406  0.695       0.68844147  0.69211048  0.25614135
   0.62465451  0.641       0.58138109  0.61173832]
 [ 0.12627994  0.55420635  0.642       0.34084901  0.49730674  0.2896683
   0.63007937  0.69966667  0.50912074  0.60518149]
 [ 0.45108279  0.70819444  0.76883333  0.64837418  0.70909929  0.12612737
   0.55333333  0.65066667  0.3597414   0.50202124]
 [ 0.26136701  0.6237013   0.66266667  0.54786624  0.60605524  0.
   0.5         0.57216667  0.          0.36388007]
 [ 0.          0.5         0.6545      0.          0.39553471  0.43767225
   0.71824009  0.72016667  0.71147156  0.71616108]
 [ 0.          0.5         0.68316667  0.          0.40581882  0.
   0.5         0.65033333  0.          0.39399625]
 [ 0.          0.5         0.5925      0.          0.37201417  0.12026997
   0.54861111  0.6915      0.2700223   0.495051  ]
 [ 0.13851719  0.56126984  0.63333333  0.37368173  0.5106234   0.05729617
   0.525       0.609       0.13958969  0.41933392]
 [ 0.          0.5         0.86033333  0.          0.46241107  0.28661205
   0.63190476  0.68683333  0.5383956   0.6124173 ]
 [ 0.          0.5         0.68733333  0.          0.40728223 -0.00827068
   0.49615385  0.55133333  0.          0.35525039]
 [ 0.          0.5         0.66666667  0.          0.39997677  0.14968634
   0.56409722  0.66683333  0.33578864  0.51302859]
 [ 0.          0.5         0.76966667  0.          0.43486107  0.02080098
   0.51025641  0.51416667  0.24427421  0.40637392]
 [ 0.3181098   0.6599359   0.65783333  0.62783815  0.64364319  0.
   0.5         0.6545      0.          0.39553471]
 [ 0.          0.5         0.58433333  0.          0.36879217  0.
   0.5         0.741       0.          0.4255814 ]
 [-0.0111775   0.49472611  0.51416667  0.12034823  0.36840093  0.47184603
   0.72745255  0.74916667  0.68691706  0.72190503]
 [ 0.21055688  0.59590909  0.64633333  0.38760425  0.53356336  0.43952205
   0.71955128  0.72016667  0.69937864  0.71103358]
 [ 0.15933552  0.57634033  0.60066667  0.39347204  0.5059875   0.43314732
   0.71307443  0.724       0.69398669  0.70995349]
 [ 0.34344242  0.64206933  0.7745      0.50927185  0.64512387  0.57824156
   0.78878205  0.78933333  0.78448689  0.78760604]
 [ 0.          0.5         0.63366667  0.          0.3878424   0.3900687
   0.68206349  0.7325      0.61358918  0.67421274]
 [ 0.          0.5         0.6255      0.          0.38477955  0.35855592
   0.67572844  0.68766667  0.64586226  0.66803062]
 [ 0.74915418  0.87555556  0.88116667  0.8743149   0.87445289  0.36363373
   0.66208333  0.74066667  0.60202481  0.66833738]]
SVM mean:
[0.2148258  0.60267283 0.6926     0.35201645 0.55019265 0.24838704
 0.61972982 0.69151111 0.42107688 0.57725899]
---------------------------
---------------------------
GBM performance:
[[ 0.56642466  0.77842158  0.7895      0.75711905  0.77602408  0.32494079
   0.62777778  0.811       0.47860697  0.6394246 ]
 [ 0.40088975  0.69773976  0.7075      0.69411637  0.69557059  0.46932295
   0.71333333  0.766       0.67141045  0.71973732]
 [ 0.51591994  0.73971029  0.77333333  0.69838418  0.74151977  0.38514905
   0.6912296   0.69516667  0.67515568  0.68589824]
 [ 0.30944913  0.65416667  0.6575      0.63691454  0.64759883 -0.0142132
   0.5         0.716       0.          0.41721903]
 [ 0.48007504  0.72809524  0.77416667  0.69894014  0.73583407  0.49730729
   0.73994755  0.74083333  0.72704706  0.73513538]
 [ 0.57454715  0.79393939  0.79        0.78434881  0.78733175  0.57819141
   0.78840326  0.79033333  0.77147743  0.78399252]
 [ 0.40528904  0.69222222  0.74633333  0.63172876  0.69269357  0.42412153
   0.7076049   0.70816667  0.71388169  0.70550422]
 [ 0.82122056  0.89564076  0.926       0.88888337  0.9098906   0.64216458
   0.81365079  0.83533333  0.79996445  0.81907599]
 [ 0.19466249  0.58153887  0.72483333  0.39597179  0.56111366  0.00323968
   0.50144433  0.67916667  0.106323    0.42448912]
 [ 0.37727811  0.69667832  0.69966667  0.66996917  0.68719168  0.32358338
   0.65837496  0.671       0.62952508  0.65112327]
 [ 0.15093935  0.56793651  0.63        0.43706711  0.53833821  0.52532133
   0.75547619  0.79016667  0.7224736   0.75768991]
 [ 0.51828473  0.74506944  0.7895      0.71205389  0.75108118  0.45659875
   0.72222222  0.7615      0.68537318  0.72645177]
 [ 0.38164271  0.67972527  0.70416667  0.65586253  0.6763107   0.30468176
   0.6437013   0.67916667  0.59009548  0.63527018]
 [ 0.1390852   0.559375    0.68683333  0.32146356  0.51055436  0.39604008
   0.69501748  0.70383333  0.66125134  0.68434303]
 [ 0.02378739  0.51580882  0.68716667  0.07071068  0.44753786  0.18987018
   0.58104167  0.69133333  0.41167459  0.55457601]
 [ 0.17994031  0.58309524  0.65433333  0.39734557  0.5332175   0.34666408
   0.64620098  0.74483333  0.57654677  0.64775275]
 [ 0.71237298  0.84444444  0.86        0.8377708   0.84992763  0.4466011
   0.7102381   0.75283333  0.65462263  0.70600504]
 [ 0.07571429  0.52678571  0.8645      0.10773503  0.50831663  0.3144972
   0.65452381  0.68683333  0.61097236  0.6473726 ]
 [ 0.23197886  0.59858193  0.73666667  0.40464611  0.57590021  0.43009895
   0.70936064  0.7275      0.67833101  0.70422602]
 [ 0.27795319  0.61840278  0.73233333  0.47000663  0.60512586  0.31395644
   0.64        0.71583333  0.55703258  0.63484512]
 [ 0.          0.5         0.76966667  0.          0.43486107  0.06343114
   0.53173077  0.53166667  0.51141587  0.52184353]
 [ 0.28955108  0.63653846  0.63683333  0.625299    0.6312897   0.38456294
   0.67444444  0.75716667  0.59720369  0.67458731]
 [ 0.29579769  0.63103896  0.687       0.51336924  0.60375217  0.16817051
   0.56626984  0.76533333  0.30444674  0.54542418]
 [ 0.47728793  0.73001166  0.73266667  0.72217298  0.72866016  0.4377172
   0.72506993  0.73566667  0.70465888  0.72366935]
 [ 0.30839635  0.64631868  0.679       0.58544013  0.62924073  0.62086922
   0.81057692  0.81016667  0.79942817  0.8062079 ]
 [ 0.39403507  0.6965035   0.71166667  0.64190442  0.67942798  0.44546802
   0.72086247  0.72866667  0.70504122  0.71718516]
 [ 0.37334156  0.65806197  0.77833333  0.57242724  0.66980451  0.48751034
   0.74358974  0.744       0.7354558   0.74007179]
 [ 0.12969353  0.55680556  0.659       0.33440163  0.51597873  0.46175971
   0.7184127   0.76166667  0.66435921  0.71452167]
 [ 0.40875309  0.68965278  0.7575      0.61110777  0.68952531  0.2985706
   0.65678904  0.66233333  0.64164664  0.6533071 ]
 [ 0.56908523  0.78055556  0.80666667  0.77017454  0.78776098  0.34165826
   0.65256944  0.74066667  0.56813751  0.64369016]]
GBM mean:
[0.35277988 0.66742885 0.73842222 0.55491117 0.65337934 0.36892851
 0.67666214 0.73013889 0.59845197 0.66735468]
---------------------------
---------------------------
BDDAE performance:
[[-0.0185331   0.49040404  0.49591837  0.4609425   0.477536    0.08679297
   0.53231982  0.75714286  0.24299871  0.50208809]
 [ 0.36466205  0.68344482  0.68163265  0.67405689  0.67775887  0.52994085
   0.75991228  0.78163265  0.75191408  0.76397988]
 [ 0.08729752  0.54166667  0.5755102   0.47482218  0.52376834  0.18059554
   0.59008333  0.59183673  0.57426677  0.58318773]
 [ 0.0066999   0.50351171  0.5122449   0.46530986  0.4889441   0.12239653
   0.55        0.71836735  0.32827387  0.5244308 ]
 [ 0.41467549  0.69947368  0.72653061  0.67796094  0.70055081  0.47369628
   0.73725     0.73673469  0.7323312   0.73494322]
 [ 0.57399123  0.78695652  0.7877551   0.77828582  0.78403951  0.03226934
   0.5166388   0.51632653  0.50255356  0.50907685]
 [ 0.10565247  0.55087719  0.59183673  0.50107804  0.54075075  0.12532824
   0.56258333  0.56326531  0.55681068  0.56017059]
 [ 0.53305004  0.74469697  0.8122449   0.71465537  0.7618739  -0.01176455
   0.49473684  0.56326531  0.34471472  0.46055429]
 [ 0.47769182  0.71803922  0.8         0.66579352  0.72830518  0.45673778
   0.69        0.81020408  0.61195441  0.71222643]
 [ 0.03025146  0.51516667  0.51632653  0.50054262  0.50848873  0.23659311
   0.61759259  0.6244898   0.60979734  0.61611306]
 [ 0.18793491  0.58973684  0.63469388  0.53386742  0.58004498  0.33589727
   0.65534483  0.70408163  0.59244856  0.64880714]
 [ 0.12764964  0.5595614   0.61428571  0.49802359  0.55119077  0.34342639
   0.67684211  0.67755102  0.67404072  0.66867642]
 [ 0.06533724  0.5327381   0.55510204  0.49392876  0.52259351  0.30320129
   0.65357143  0.65918367  0.63435138  0.64403297]
 [ 0.14214321  0.5640625   0.64489796  0.48438472  0.55494185  0.32080682
   0.66070234  0.66122449  0.65477627  0.65770744]
 [ 0.01835227  0.50681818  0.63061224  0.32905198  0.48058611  0.2638048
   0.62683824  0.68367347  0.58678711  0.62627293]
 [ 0.10252731  0.54956897  0.58163265  0.48206255  0.52820904  0.22337686
   0.59237132  0.71428571  0.42112598  0.56396836]
 [ 0.51932902  0.76422414  0.77142857  0.73454016  0.74936635  0.19075002
   0.58681034  0.63673469  0.50381266  0.56899976]
 [ 0.23416357  0.60238095  0.84897959  0.42629967  0.60506463 -0.04204826
   0.48094828  0.54081633  0.32417845  0.44130237]
 [ 0.11363497  0.55372549  0.64693878  0.48656022  0.54989399  0.36464845
   0.68089226  0.6877551   0.67327332  0.68017469]
 [ 0.15845379  0.57301136  0.66122449  0.48410806  0.56232298 -0.03078979
   0.4844086   0.60408163  0.11924903  0.39979708]
 [ 0.06546221  0.54066986  0.71836735  0.32644292  0.51776037  0.14554965
   0.57266667  0.57346939  0.5662127   0.56990011]
 [-0.01928253  0.4905      0.48979592  0.47776774  0.48377875 -0.07732987
   0.46819853  0.60612245  0.06721316  0.38935224]
 [-0.01035607  0.49456897  0.51836735  0.4702174   0.49047784  0.47780817
   0.71559829  0.82040816  0.67228125  0.73435758]
 [ 0.12941448  0.56496656  0.56734694  0.55641853  0.56158039  0.29324323
   0.64452862  0.65510204  0.63323163  0.64363548]
 [ 0.1060104   0.55178571  0.57346939  0.52504968  0.54714338  0.07339523
   0.53666667  0.53673469  0.52981503  0.53323924]
 [ 0.17782119  0.58770903  0.59387755  0.56897553  0.58169372  0.25132308
   0.6229798   0.63877551  0.5955825   0.61671218]
 [ 0.36906515  0.67117647  0.75306122  0.6282671   0.67838595  0.57664904
   0.78666667  0.78979592  0.76758398  0.7814174 ]
 [-0.03042821  0.48467742  0.54693878  0.41371326  0.47517555  0.37921068
   0.68224138  0.71020408  0.66333352  0.68587295]
 [ 0.04414426  0.5218638   0.58367347  0.44881753  0.50943168  0.35259355
   0.67391304  0.68163265  0.65803971  0.67079142]
 [ 0.19650091  0.59192982  0.63265306  0.56012792  0.59257241 -0.0185522
   0.49099265  0.61428571  0.22728338  0.44266287]]
BDDAE mean:
[0.17577722 0.58433043 0.63557823 0.52806908 0.57714101 0.23198502
 0.61147663 0.66197279 0.52734119 0.59781505]
---------------------------
---------------------------
DUMMY performance:
[[0.         0.5        0.54316667 0.         0.35195134 0.
  0.5        0.753      0.         0.42954545]
 [0.         0.5        0.53916667 0.         0.35026443 0.
  0.5        0.6175     0.         0.38173077]
 [0.         0.5        0.57216667 0.         0.36388007 0.
  0.5        0.5185     0.         0.34137032]
 [0.         0.5        0.53516667 0.         0.34857752 0.
  0.5        0.716      0.         0.41721903]
 [0.         0.5        0.60916667 0.         0.3784919  0.
  0.5        0.51016667 0.         0.33776671]
 [0.         0.5        0.52266667 0.         0.34317212 0.
  0.5        0.52683333 0.         0.34497392]
 [0.         0.5        0.60916667 0.         0.3784919  0.
  0.5        0.51433333 0.         0.33956852]
 [0.         0.5        0.68316667 0.         0.40581882 0.
  0.5        0.605      0.         0.37687247]
 [0.         0.5        0.69566667 0.         0.41020906 0.
  0.5        0.68733333 0.         0.40728223]
 [0.         0.5        0.51433333 0.         0.33956852 0.
  0.5        0.54316667 0.         0.35195134]
 [0.         0.5        0.605      0.         0.37687247 0.
  0.5        0.60083333 0.         0.37525304]
 [0.         0.5        0.6215     0.         0.38325516 0.
  0.5        0.6175     0.         0.38173077]
 [0.         0.5        0.57216667 0.         0.36388007 0.
  0.5        0.57216667 0.         0.36388007]
 [0.         0.5        0.6545     0.         0.39553471 0.
  0.5        0.52683333 0.         0.34497392]
 [0.         0.5        0.68316667 0.         0.40581882 0.
  0.5        0.65033333 0.         0.39399625]
 [0.         0.5        0.5925     0.         0.37201417 0.
  0.5        0.66266667 0.         0.39852497]
 [0.         0.5        0.5925     0.         0.37201417 0.
  0.5        0.58833333 0.         0.37039474]
 [0.         0.5        0.86033333 0.         0.46241107 0.
  0.5        0.5925     0.         0.37201417]
 [0.         0.5        0.68733333 0.         0.40728223 0.
  0.5        0.5555     0.         0.35705219]
 [0.         0.5        0.66666667 0.         0.39997677 0.
  0.5        0.6255     0.         0.38477955]
 [0.         0.5        0.76966667 0.         0.43486107 0.
  0.5        0.506      0.         0.33596491]
 [0.         0.5        0.506      0.         0.33596491 0.
  0.5        0.6545     0.         0.39553471]
 [0.         0.5        0.58433333 0.         0.36879217 0.
  0.5        0.741      0.         0.4255814 ]
 [0.         0.5        0.52266667 0.         0.34317212 0.
  0.5        0.55133333 0.         0.35534522]
 [0.         0.5        0.56383333 0.         0.36046613 0.
  0.5        0.506      0.         0.33596491]
 [0.         0.5        0.531      0.         0.34677572 0.
  0.5        0.54316667 0.         0.35195134]
 [0.         0.5        0.69566667 0.         0.41020906 0.
  0.5        0.506      0.         0.33596491]
 [0.         0.5        0.63366667 0.         0.3878424  0.
  0.5        0.60083333 0.         0.37525304]
 [0.         0.5        0.6255     0.         0.38477955 0.
  0.5        0.53516667 0.         0.34857752]
 [0.         0.5        0.6175     0.         0.38173077 0.
  0.5        0.65033333 0.         0.39399625]]
DUMMY mean:
[0.         0.5        0.61364444 0.         0.37880264 0.
 0.5        0.59261111 0.         0.37083382]
---------------------------
Current folder: C:\Users\Javier\Dropbox\c_sldl_1_2_31
-------------------------------------
----- RESULTS from .csv files ------
-------------------------------------
---------------------------
ALG Means: 
-rows: alg : KNN = 0; DT = 1; RF = 2; SVM = 3; GBM = 4; BDDAE = 5; DUMMY = 5
columns:
'val_cohen','val_uar', 'val_acc', 'val_gm',  'val_f1',  'aro_cohen','aro_uar', 'aro_acc', 'aro_gm',  'aro_f1'
-------------------------------------------------------------
  v_c   v_u   v_a   v_g   v_f1  a_c   a_u   a_a   a_g   a_f1
[[0.427 0.71  0.746 0.681 0.71  0.449 0.722 0.746 0.702 0.72 ]
 [0.412 0.706 0.73  0.689 0.703 0.424 0.717 0.732 0.702 0.714]
 [0.457 0.727 0.757 0.696 0.725 0.47  0.735 0.756 0.716 0.733]
 [0.215 0.603 0.693 0.352 0.55  0.248 0.62  0.692 0.421 0.577]
 [0.353 0.667 0.738 0.555 0.653 0.369 0.677 0.73  0.598 0.667]
 [0.176 0.584 0.636 0.528 0.577 0.232 0.611 0.662 0.527 0.598]
 [0.    0.5   0.614 0.    0.379 0.    0.5   0.593 0.    0.371]]
-------------------------------------------------------------
Standard Deviation of each metric:
[[0.158 0.081 0.067 0.118 0.081 0.119 0.061 0.052 0.075 0.061]
 [0.165 0.076 0.072 0.084 0.076 0.141 0.069 0.069 0.073 0.07 ]
 [0.16  0.086 0.074 0.116 0.087 0.152 0.069 0.065 0.087 0.069]
 [0.23  0.112 0.088 0.311 0.154 0.202 0.1   0.065 0.298 0.143]
 [0.193 0.096 0.069 0.219 0.114 0.159 0.079 0.057 0.181 0.095]
 [0.176 0.085 0.1   0.109 0.09  0.178 0.086 0.082 0.182 0.105]
 [0.    0.    0.079 0.    0.029 0.    0.    0.071 0.    0.027]]
-------------------------------------------------------------
std_dev/mean [percentage]:
[[ 37.  11.   9.  17.  11.  27.   8.   7.  11.   8.]
 [ 40.  11.  10.  12.  11.  33.  10.   9.  10.  10.]
 [ 35.  12.  10.  17.  12.  32.   9.   9.  12.   9.]
 [107.  19.  13.  88.  28.  81.  16.   9.  71.  25.]
 [ 55.  14.   9.  39.  17.  43.  12.   8.  30.  14.]
 [100.  15.  16.  21.  16.  77.  14.  12.  35.  18.]
 [  0.   0.  13.   0.   8.   0.   0.  12.   0.   7.]]
-------------------------------------
Current folder: C:\Users\Javier\Dropbox\c_sldl_1_2_31
-------------------------------------
----- RESULTS ------
-------------------------------------
Window size (sec):  10.0
step (sec):  4.992
overlap:  True
perc. of overlap:  50.08
overlap duration (sec):  5.008
Number of windows / instances:  243
Elapsed time: 803.6226969718933 minutes
Elapsed time: 13.393711616198221 hours
