2024-05-01 19:37:36.772639: I tensorflow/core/util/port.cc:113] oneDNN custom operations are on. You may see slightly different numerical results due to floating-point round-off errors from different computation orders. To turn them off, set the environment variable `TF_ENABLE_ONEDNN_OPTS=0`.
2024-05-01 19:37:40.570459: I tensorflow/core/util/port.cc:113] oneDNN custom operations are on. You may see slightly different numerical results due to floating-point round-off errors from different computation orders. To turn them off, set the environment variable `TF_ENABLE_ONEDNN_OPTS=0`.
2024-05-01 19:37:50.648681: I tensorflow/core/platform/cpu_feature_guard.cc:210] This TensorFlow binary is optimized to use available CPU instructions in performance-critical operations.
To enable the following instructions: AVX2 FMA, in other operations, rebuild TensorFlow with the appropriate compiler flags.
    
    
-------------------------------
participant:  1
-------------------------------
    
    
participant:  1
corriendo en PC gamer:
Window size (sec):  9.0
step (sec):  9.0
overlap:  True
perc. of overlap:  0.0
overlap duration (sec):  0.0
Nearest multiple of 16 to 9000 is: 8992
Nearest multiple of 16 to 9000 is: 8992
['gsr_chunks', 'ppg_chunks', 'val_chunks', 'aro_chunks', 'time_chunks', 'tag_chunks', 'video']
C:\Users\Javier\Dropbox\c_sldl_1_2_26\functions.py:880: FutureWarning: ChainedAssignmentError: behaviour will change in pandas 3.0!
You are setting values through chained assignment. Currently this works in certain cases, but when using Copy-on-Write (which will become the default behaviour in pandas 3.0) this will never work to update the original DataFrame or Series, because the intermediate object on which we are setting values will behave as a copy.
A typi7800 - loss: 0.4713 - val_binary_accuracy: 0.6364 - val_loss: 0.8265

[1m1/1[0m [32m━━━━━━━━━━━━━━━━━━━━[0m[37m[0m [1m0s[0m 110ms/step
[1m1/1[0m [32m━━━━━━━━━━━━━━━━━━━━[0m[37m[0m [1m0s[0m 110ms/step
predicted [0.7151741  0.93083334 0.94236594 0.87165916 0.44793028 0.6679684
 0.02830573 0.32565838 0.8899411  0.9555407  0.85083646 0.9424607
 0.8423986  0.6931043  0.85106266 0.950089   0.76771533 0.9736139
 0.60609084 0.79072165 0.92839164 0.97871935 0.69672525 0.67173135
 0.7882121  0.85392666 0.09178969 0.11124901]
predicted [1 1 1 1 0 1 0 0 1 1 1 1 1 1 1 1 1 1 1 1 1 1 1 1 1 1 0 0]
expected [ True  True  True  True  True False False  True  True False  True  True
  True False False  True  True  True  True  True  True False  True False
 False  True False False]
accuracy: 0.6785714285714286
confusion matrix: 
[[ 3  7]
 [ 2 16]]
              precision    recall  f1-score   support

       False       0.60      0.30      0.40        10
        True       0.70      0.89      0.78        18

    accuracy                           0.68        28
   macro avg       0.65      0.59      0.59        28
weighted avg       0.66      0.68      0.64        28

macro avg f1-score: 0.5902439024390245
macro avg (UAR): 0.5944444444444444
Sensitivity:  0.3
Specificity:  0.8888888888888888
g-mean:  0.5163977794943222
-------- Model Performance ----------: 
accuracy:  [0.64285714 0.71428571 0.64285714 0.64285714 0.75       0.71428571
 0.57142857 0.67857143 0.75       0.67857143]
gmean:  [0.5        0.4472136  0.55777335 0.5        0.70710678 0.53229065
 0.51639778 0.57735027 0.73786479 0.51639778]
f1_score:  [0.5625     0.57575758 0.59064327 0.5625     0.72119488 0.61904762
 0.53333333 0.6199095  0.73333333 0.5902439 ]
UAR:  [0.56666667 0.6        0.58888889 0.56666667 0.71666667 0.62222222
 0.53333333 0.61666667 0.73888889 0.59444444]
Cohen Kappa score:  [0.14634146 0.24324324 0.18604651 0.14634146 0.44318182 0.28205128
 0.06666667 0.25       0.4673913  0.2125    ]
arousal and valece = ok
------------- Evaluating model --------------
-------------------------------------
-------------------------------------
participant:  30
-------------------------------------
----- RESULTS ------
-------------------------------------
Window size (sec):  8.992
step (sec):  8.992
overlap:  True
perc. of overlap:  0.0
overlap duration (sec):  0.0
Number of windows / instances:  137
-rows: alg : KNN = 0; DT = 1; RF = 2; SVM = 3; GBM = 4; BDDAE = 5; DUMMY = 5
columns:
'val_cohen','val_uar', 'val_acc', 'val_gm',  'val_f1',  'aro_cohen','aro_uar', 'aro_acc', 'aro_gm',  'aro_f1'
-------------------------------------------------------------
  v_c   v_u   v_a   v_g   v_f1  a_c   a_u   a_a   a_g   a_f1
[[ 0.689  0.849  0.853  0.844  0.843  0.379  0.694  0.71   0.68   0.685]
 [ 0.56   0.793  0.802  0.776  0.789  0.399  0.685  0.707  0.704  0.68 ]
 [ 0.632  0.81   0.832  0.833  0.806  0.475  0.676  0.708  0.713  0.675]
 [ 0.278  0.621  0.715  0.445  0.596 -0.028  0.489  0.627  0.     0.385]
 [ 0.631  0.809  0.831  0.8    0.814  0.195  0.592  0.676  0.447  0.579]
 [ 0.244  0.614  0.679  0.559  0.611  0.101  0.544  0.629  0.436  0.526]
 [ 0.     0.5    0.627  0.     0.385  0.     0.5    0.642  0.     0.391]]
participant performance loaded
    
    
-------------------------------
LAST participant's saved data: 
30
-------------------------------
    
    
---------------------------
KNN performance:
[[ 0.48139242  0.74017857  0.74725275  0.723471    0.73546794  0.37200665
   0.67507576  0.78131868  0.62033044  0.68011113]
 [ 0.37412465  0.69017857  0.68626374  0.68464006  0.6840522   0.4415394
   0.71361111  0.74450549  0.69252316  0.71601314]
 [ 0.4204659   0.70565476  0.72252747  0.6827754   0.70373102  0.45923054
   0.7297619   0.72967033  0.71961999  0.72527664]
 [ 0.3281336   0.6625      0.67197802  0.6446001   0.65836442  0.07999401
   0.54222222  0.64120879  0.41713164  0.5281065 ]
 [ 0.52353987  0.74958333  0.78956044  0.71622272  0.75332086  0.3603192
   0.68095238  0.67967033  0.66026267  0.67017513]
 [ 0.48422783  0.74285714  0.74230769  0.72684824  0.73511166  0.4880216
   0.74494048  0.74395604  0.72925823  0.73633044]
 [ 0.21202458  0.60263889  0.63571429  0.55771729  0.59239044  0.29719409
   0.64880952  0.64945055  0.63087177  0.64080863]
 [ 0.7680914   0.87444444  0.9043956   0.86024194  0.88114419  0.59556191
   0.80541667  0.80274725  0.8020751   0.79535548]
 [ 0.31927462  0.64861111  0.73516484  0.56207584  0.6462106   0.0872348
   0.53666667  0.65549451  0.36829527  0.52212729]
 [ 0.13392406  0.56666667  0.56978022  0.53846199  0.55459027  0.2359419
   0.61607143  0.62142857  0.5906      0.60682998]
 [ 0.20796313  0.60097222  0.62912088  0.56563982  0.59460791  0.31181211
   0.65263889  0.67252747  0.62454557  0.64655549]
 [ 0.64277214  0.81236111  0.83351648  0.79994041  0.81837716  0.51423586
   0.75        0.77527473  0.73554264  0.75430286]
 [ 0.44180858  0.71857143  0.73131868  0.70628635  0.71763324  0.35745503
   0.67797619  0.68571429  0.66101524  0.67249678]
 [ 0.15862556  0.57416667  0.63626374  0.48508973  0.56441165  0.23441467
   0.61607143  0.61978022  0.60236805  0.61132798]
 [ 0.12160385  0.55888889  0.62032967  0.51583428  0.55617379  0.22452551
   0.61180556  0.64065934  0.58816984  0.60610719]
 [ 0.14076539  0.56805556  0.59945055  0.54133402  0.56623572  0.27984783
   0.63472222  0.70164835  0.55645561  0.62717334]
 [ 0.53910996  0.76569444  0.78186813  0.74894313  0.76445648  0.39766689
   0.69472222  0.71593407  0.67543878  0.69460484]
 [ 0.08733507  0.55719697  0.80989011  0.23086302  0.535891    0.34783637
   0.6725      0.69340659  0.64134105  0.66429932]
 [ 0.19998414  0.59305556  0.67802198  0.50710978  0.59046841  0.32593388
   0.66279762  0.66593407  0.65495493  0.6599572 ]
 [ 0.32635213  0.65444444  0.72967033  0.54255825  0.64475565  0.16002014
   0.57472222  0.63406593  0.44815632  0.55444028]
 [ 0.02722104  0.5119697   0.70054945  0.23815774  0.49723903 -0.00410868
   0.49732143  0.5032967   0.45074956  0.47724168]
 [ 0.377089    0.68928571  0.68626374  0.67730539  0.68179487  0.29458834
   0.64472222  0.69395604  0.57432092  0.63389714]
 [ 0.16417354  0.58416667  0.59945055  0.56042337  0.57660049  0.08593251
   0.5405303   0.72967033  0.23213835  0.50766977]
 [ 0.21151308  0.60744048  0.60384615  0.59387745  0.59848737  0.50460095
   0.75267857  0.75879121  0.74159028  0.74905149]
 [ 0.47071622  0.7389881   0.73846154  0.72557455  0.72997107  0.59393672
   0.79761905  0.7967033   0.7930443   0.79539044]
 [ 0.42390044  0.70952381  0.71648352  0.67736748  0.69821957  0.43872645
   0.72053571  0.72307692  0.71259456  0.71675894]
 [ 0.25643999  0.62805556  0.7         0.55484682  0.62353801  0.52068273
   0.75952381  0.76098901  0.75528089  0.75886031]
 [ 0.26592638  0.62958333  0.67087912  0.59618414  0.62560579  0.43582864
   0.71069444  0.74505495  0.67853929  0.71007958]
 [ 0.13252766  0.56194444  0.6         0.52208645  0.55426232  0.21701896
   0.60595238  0.61758242  0.59049127  0.60408165]
 [ 0.68886996  0.84916667  0.8532967   0.84443639  0.84331583  0.37949846
   0.69402778  0.70989011  0.67969997  0.68543576]]
KNN mean:
[0.33099654 0.66322817 0.70412088 0.61103044 0.65754763 0.33458325
 0.66550301 0.69644689 0.62091352 0.65836221]
---------------------------
---------------------------
DT performance:
[[ 0.48069858  0.70922619  0.71758242  0.68760197  0.70810031  0.43097073
   0.70939394  0.74395604  0.70111811  0.67765575]
 [ 0.47148301  0.72708333  0.72912088  0.70591724  0.72519383  0.41196679
   0.69        0.7032967   0.70023711  0.68077069]
 [ 0.41564614  0.68303571  0.68626374  0.68423818  0.66984588  0.32774627
   0.69404762  0.69395604  0.67796818  0.6882574 ]
 [ 0.3110844   0.66339286  0.66483516  0.60897357  0.65522623  0.08127956
   0.53805556  0.60549451  0.48214394  0.52670348]
 [ 0.36577492  0.70111111  0.71648352  0.65947153  0.69126727  0.35887955
   0.69404762  0.69395604  0.70175573  0.68891106]
 [ 0.35428414  0.72142857  0.72142857  0.68861083  0.71584624  0.41735836
   0.725       0.72252747  0.70506009  0.71713581]
 [ 0.27005572  0.60555556  0.63351648  0.5441298   0.59457188  0.18281738
   0.6         0.6         0.59551674  0.59222253]
 [ 0.63808595  0.82611111  0.84065934  0.84425204  0.81783229  0.51538493
   0.72847222  0.75274725  0.72166804  0.72553326]
 [ 0.27060062  0.62444444  0.69340659  0.56785731  0.62377231  0.22864397
   0.63        0.67967033  0.56530629  0.62704386]
 [ 0.2089957   0.63571429  0.63516484  0.5770837   0.63163919  0.26797953
   0.65119048  0.64945055  0.61027709  0.6440949 ]
 [ 0.08376104  0.55513889  0.57857143  0.50385533  0.54960132  0.23594837
   0.66236111  0.67032967  0.64583862  0.6567912 ]
 [ 0.50024103  0.77958333  0.78901099  0.76688208  0.77338873  0.33841379
   0.69166667  0.69395604  0.65820883  0.68262572]
 [ 0.33668191  0.6597619   0.67142857  0.61093168  0.65501524  0.18015957
   0.59940476  0.60824176  0.5505287   0.59103751]
 [ 0.07642721  0.56041667  0.60604396  0.42553125  0.54801772  0.2935
   0.6639881   0.66483516  0.65233083  0.65331816]
 [ 0.15060631  0.56166667  0.59835165  0.51983958  0.54339686  0.1644875
   0.54527778  0.56868132  0.55313849  0.54101396]
 [ 0.13458551  0.5775      0.58461538  0.54567383  0.56316847  0.39639323
   0.73333333  0.75989011  0.6905038   0.7200234 ]
 [ 0.66989973  0.81555556  0.82527473  0.80139113  0.81288774  0.40289299
   0.70458333  0.70714286  0.68990704  0.6929685 ]
 [ 0.30267172  0.64886364  0.82582418  0.46736353  0.61762761  0.35679982
   0.67611111  0.68626374  0.69064014  0.67037934]
 [ 0.38376265  0.69638889  0.72857143  0.6359305   0.69346031  0.49350292
   0.74017857  0.74395604  0.75115469  0.73701772]
 [ 0.17244865  0.60222222  0.65        0.54319277  0.59463134  0.20424212
   0.60430556  0.61978022  0.57546001  0.59535449]
 [ 0.01692907  0.53386364  0.67747253  0.24701158  0.52440241 -0.00808824
   0.49136905  0.49010989  0.47636794  0.48440476]
 [ 0.32718505  0.61547619  0.61318681  0.63685148  0.60308955  0.18121292
   0.63513889  0.65604396  0.55432432  0.62187842]
 [ 0.22435376  0.58166667  0.58241758  0.56276344  0.56130009  0.04261221
   0.54151515  0.68186813  0.32020705  0.54085051]
 [ 0.2701332   0.67113095  0.66923077  0.63582743  0.66569098  0.48094824
   0.73839286  0.7456044   0.70731425  0.73768948]
 [ 0.29335356  0.66488095  0.66813187  0.62605309  0.65644536  0.43202319
   0.76071429  0.75989011  0.67744735  0.75539458]
 [ 0.25495961  0.61309524  0.62197802  0.55834609  0.60350071  0.21042435
   0.61904762  0.61923077  0.62205841  0.61073718]
 [ 0.31420782  0.63        0.69395604  0.50899216  0.61577842  0.33957307
   0.63214286  0.63241758  0.638005    0.62410031]
 [-0.02926901  0.43513889  0.47637363  0.34680258  0.42880223  0.43489057
   0.73208333  0.73846154  0.68522386  0.72708967]
 [ 0.29846097  0.63083333  0.65        0.60719688  0.61863519  0.23370189
   0.60922619  0.61208791  0.59886461  0.59886342]
 [ 0.55965136  0.79347222  0.8021978   0.77564819  0.78916291  0.39859994
   0.68486111  0.70714286  0.7037636   0.67961227]]
DT mean:
[0.30425868 0.65079197 0.67836996 0.59647403 0.64170995 0.30117552
 0.6575303  0.67369963 0.63007796 0.64964931]
---------------------------
---------------------------
RF performance:
[[0.50234085 0.73244048 0.73956044 0.7431711  0.7296086  0.51989575
  0.67674242 0.78956044 0.7323271  0.669955  ]
 [0.4651873  0.7047619  0.70054945 0.71318071 0.6948002  0.46728639
  0.70583333 0.73021978 0.74431052 0.70590212]
 [0.35363133 0.72380952 0.73461538 0.65490958 0.71879619 0.38507003
  0.68690476 0.68571429 0.69938451 0.68139635]
 [0.34584425 0.60386905 0.60549451 0.6920104  0.59384175 0.2092305
  0.53333333 0.6510989  0.51302838 0.5291811 ]
 [0.45795044 0.74375    0.75934066 0.73431939 0.73295832 0.35437582
  0.65119048 0.65164835 0.59180427 0.63928612]
 [0.45708957 0.7797619  0.77967033 0.70928956 0.77520063 0.44378138
  0.7360119  0.73846154 0.76663601 0.7303083 ]
 [0.27857955 0.62444444 0.63681319 0.54862502 0.61649578 0.20591555
  0.65357143 0.65769231 0.63442938 0.65034768]
 [0.77902587 0.86083333 0.88406593 0.88177026 0.85847228 0.54910961
  0.75291667 0.76758242 0.70222287 0.74343205]
 [0.30356925 0.72694444 0.76483516 0.63389102 0.72239767 0.21730233
  0.66805556 0.71538462 0.40137414 0.66230429]
 [0.29443277 0.59761905 0.59835165 0.63476242 0.587746   0.33216384
  0.72232143 0.72252747 0.63035224 0.70727604]
 [0.21188753 0.55930556 0.57747253 0.52231624 0.54364366 0.41210648
  0.68486111 0.69945055 0.70641527 0.67628742]
 [0.56343945 0.74291667 0.75274725 0.79502248 0.73168402 0.32822449
  0.67444444 0.68681319 0.66199978 0.67013338]
 [0.31760817 0.73345238 0.74450549 0.70409723 0.73043129 0.22177763
  0.58690476 0.59505495 0.55589421 0.58037257]
 [0.11881765 0.55638889 0.58296703 0.51500826 0.55181685 0.3668268
  0.69583333 0.69945055 0.63516492 0.69093559]
 [0.19873375 0.62222222 0.65824176 0.53216484 0.6129754  0.19891932
  0.63097222 0.67197802 0.56756375 0.61926086]
 [0.16459217 0.61194444 0.6489011  0.59013281 0.60843398 0.46026318
  0.68527778 0.72417582 0.70024184 0.6776067 ]
 [0.73052328 0.81611111 0.81923077 0.84619895 0.80683869 0.49692972
  0.75166667 0.75989011 0.77351707 0.74486316]
 [0.30498849 0.6405303  0.84615385 0.41431496 0.6038727  0.31390636
  0.66638889 0.67857143 0.68408707 0.65689537]
 [0.39668912 0.7525     0.78076923 0.65641155 0.74243047 0.55157869
  0.75863095 0.76648352 0.67695263 0.74709795]
 [0.34477928 0.60555556 0.66428571 0.56344997 0.60106621 0.1925382
  0.63527778 0.66428571 0.58267848 0.6275111 ]
 [0.06228676 0.52901515 0.71483516 0.37415443 0.50864561 0.13487716
  0.44761905 0.44505495 0.45584708 0.43667582]
 [0.2881398  0.69285714 0.69285714 0.6434221  0.68901265 0.24473381
  0.63583333 0.68516484 0.48495263 0.61667568]
 [0.30120295 0.5775     0.59285714 0.5210229  0.56430914 0.26348204
  0.59219697 0.73846154 0.55581502 0.57862648]
 [0.25916214 0.59821429 0.5978022  0.63810616 0.58735397 0.3344619
  0.73434524 0.74450549 0.68938666 0.73065099]
 [0.43872163 0.67142857 0.68791209 0.65850495 0.66562546 0.5166535
  0.75357143 0.7521978  0.70406793 0.7495621 ]
 [0.27579109 0.61041667 0.61208791 0.60005619 0.60247069 0.41914625
  0.68571429 0.69120879 0.66863678 0.67563461]
 [0.46112151 0.70055556 0.75934066 0.70718211 0.70392935 0.45482377
  0.71547619 0.71483516 0.66560969 0.71001915]
 [0.18464795 0.59541667 0.64175824 0.48222432 0.57545532 0.48975323
  0.70111111 0.71648352 0.74106797 0.69411457]
 [0.29635915 0.62611111 0.65879121 0.60276961 0.62368257 0.25085527
  0.61220238 0.61373626 0.60217588 0.60368614]
 [0.63247432 0.81027778 0.83186813 0.83254855 0.80618744 0.47500226
  0.67611111 0.70824176 0.71278531 0.67471179]]
RF mean:
[0.35965391 0.67169847 0.70228938 0.63816794 0.6630061  0.36036638
 0.67037734 0.69553114 0.64135765 0.66269035]
---------------------------
---------------------------
SVM performance:
[[ 3.32225914e-04  5.00892857e-01  5.47252747e-01  3.77964473e-02
   3.64621212e-01  0.00000000e+00  5.00000000e-01  7.52197802e-01
   0.00000000e+00  4.29101449e-01]
 [ 3.37064914e-01  6.66071429e-01  6.79120879e-01  6.38009562e-01
   6.58882204e-01  1.88215402e-02  5.07500000e-01  6.20329670e-01
   8.65543609e-02  4.11112762e-01]
 [ 4.28546095e-01  7.02083333e-01  7.36813187e-01  6.31690412e-01
   6.88879060e-01  3.57976432e-01  6.79761905e-01  6.78021978e-01
   6.64000313e-01  6.71688287e-01]
 [ 1.36733606e-01  5.65476190e-01  5.91758242e-01  3.50295746e-01
   4.95685532e-01  0.00000000e+00  5.00000000e-01  7.07692308e-01
   0.00000000e+00  4.14393939e-01]
 [ 4.75126775e-01  7.20972222e-01  7.75824176e-01  6.60328874e-01
   7.20070598e-01  4.44593838e-01  7.22619048e-01  7.22527473e-01
   7.01214153e-01  7.12779338e-01]
 [ 2.79005971e-01  6.38095238e-01  6.42857143e-01  5.38004591e-01
   6.00306001e-01  4.01785630e-01  7.02678571e-01  6.99450549e-01
   6.94230620e-01  6.96388195e-01]
 [ 0.00000000e+00  5.00000000e-01  6.06043956e-01  0.00000000e+00
   3.77131564e-01  1.45188626e-01  5.71428571e-01  5.78571429e-01
   4.68559509e-01  5.33301474e-01]
 [ 6.48358429e-01  7.96944444e-01  8.61538462e-01  7.64898193e-01
   8.17678856e-01  2.55081486e-01  6.11111111e-01  7.00549451e-01
   4.24074590e-01  5.78425609e-01]
 [ 0.00000000e+00  5.00000000e-01  6.86263736e-01  0.00000000e+00
   4.06785244e-01  0.00000000e+00  5.00000000e-01  7.00549451e-01
   0.00000000e+00  4.11857708e-01]
 [ 1.21119734e-01  5.60714286e-01  5.61538462e-01  4.90175063e-01
   5.26577730e-01  4.03207184e-02  5.19642857e-01  5.48351648e-01
   1.69324955e-01  4.07785942e-01]
 [ 0.00000000e+00  5.00000000e-01  6.06043956e-01  0.00000000e+00
   3.77131564e-01 -1.39534884e-02  4.93750000e-01  5.84615385e-01
   0.00000000e+00  3.68567664e-01]
 [ 0.00000000e+00  5.00000000e-01  5.98901099e-01  0.00000000e+00
   3.74364766e-01  0.00000000e+00  5.00000000e-01  6.13186813e-01
   0.00000000e+00  3.79898363e-01]
 [ 3.72093023e-02  5.16666667e-01  5.83516484e-01  8.16496581e-02
   3.94675325e-01  0.00000000e+00  5.00000000e-01  5.54395604e-01
   0.00000000e+00  3.56515152e-01]
 [ 0.00000000e+00  5.00000000e-01  6.34615385e-01  0.00000000e+00
   3.88198758e-01  1.97303337e-01  5.94642857e-01  6.13186813e-01
   4.60780006e-01  5.45956610e-01]
 [ 0.00000000e+00  5.00000000e-01  6.64835165e-01  0.00000000e+00
   3.99176548e-01  0.00000000e+00  5.00000000e-01  6.34615385e-01
   0.00000000e+00  3.88198758e-01]
 [ 0.00000000e+00  5.00000000e-01  5.98901099e-01  0.00000000e+00
   3.74364766e-01  0.00000000e+00  5.00000000e-01  6.71978022e-01
   0.00000000e+00  4.01712780e-01]
 [ 0.00000000e+00  5.00000000e-01  5.98901099e-01  0.00000000e+00
   3.74364766e-01  0.00000000e+00  5.00000000e-01  5.98901099e-01
   0.00000000e+00  3.74364766e-01]
 [ 0.00000000e+00  5.00000000e-01  8.53846154e-01  0.00000000e+00
   4.60576923e-01  0.00000000e+00  5.00000000e-01  5.91758242e-01
   0.00000000e+00  3.71597967e-01]
 [ 0.00000000e+00  5.00000000e-01  6.86263736e-01  0.00000000e+00
   4.06785244e-01  0.00000000e+00  5.00000000e-01  5.47252747e-01
   0.00000000e+00  3.53484848e-01]
 [ 0.00000000e+00  5.00000000e-01  6.64835165e-01  0.00000000e+00
   3.99176548e-01  0.00000000e+00  5.00000000e-01  6.20329670e-01
   0.00000000e+00  3.82665161e-01]
 [ 0.00000000e+00  5.00000000e-01  7.73626374e-01  0.00000000e+00
   4.36101449e-01  0.00000000e+00  5.00000000e-01  5.18681319e-01
   0.00000000e+00  3.41363636e-01]
 [ 3.31879356e-01  6.66666667e-01  6.62087912e-01  6.24728910e-01
   6.44345272e-01  0.00000000e+00  5.00000000e-01  6.42307692e-01
   0.00000000e+00  3.91012611e-01]
 [ 0.00000000e+00  5.00000000e-01  5.84615385e-01  0.00000000e+00
   3.68831169e-01  0.00000000e+00  5.00000000e-01  7.52197802e-01
   0.00000000e+00  4.29101449e-01]
 [ 0.00000000e+00  5.00000000e-01  5.25824176e-01  0.00000000e+00
   3.44393939e-01  1.40828117e-01  5.63750000e-01  6.20879121e-01
   2.80551042e-01  4.82102605e-01]
 [ 0.00000000e+00  5.00000000e-01  5.69230769e-01  0.00000000e+00
   3.62640693e-01  4.49172445e-01  7.26190476e-01  7.23076923e-01
   7.09745550e-01  7.16809171e-01]
 [ 0.00000000e+00  5.00000000e-01  5.40109890e-01  0.00000000e+00
   3.50454545e-01  4.40452872e-01  7.15476190e-01  7.28021978e-01
   7.00672728e-01  7.15823751e-01]
 [ 0.00000000e+00  5.00000000e-01  6.86263736e-01  0.00000000e+00
   4.06785244e-01  5.02888208e-01  7.50000000e-01  7.52747253e-01
   7.32482153e-01  7.44172553e-01]
 [ 0.00000000e+00  5.00000000e-01  6.34615385e-01  0.00000000e+00
   3.88198758e-01  0.00000000e+00  5.00000000e-01  6.06043956e-01
   0.00000000e+00  3.77131564e-01]
 [ 0.00000000e+00  5.00000000e-01  6.27472527e-01  0.00000000e+00
   3.85431959e-01  0.00000000e+00  5.00000000e-01  5.47252747e-01
   0.00000000e+00  3.53484848e-01]
 [ 2.77765232e-01  6.21111111e-01  7.15384615e-01  4.44881318e-01
   5.96365568e-01 -2.75486012e-02  4.88888889e-01  6.27472527e-01
   0.00000000e+00  3.85431959e-01]]
SVM mean:
[0.10243805 0.54852315 0.64996337 0.17541529 0.46296606 0.11176371
 0.55491468 0.64190476 0.203073   0.47087436]
---------------------------
---------------------------
GBM performance:
[[ 0.4675438   0.71964286  0.73956044  0.697411    0.71494943  0.2828401
   0.64083333  0.81208791  0.39972307  0.62951054]
 [ 0.44046499  0.71607143  0.72967033  0.68654499  0.70902084  0.37061615
   0.68833333  0.73186813  0.63102838  0.68258048]
 [ 0.41915027  0.68363095  0.71373626  0.63436844  0.67003655  0.23672995
   0.61904762  0.62032967  0.59293911  0.60724112]
 [ 0.4248621   0.7125      0.71538462  0.68984358  0.70181612  0.13030265
   0.54694444  0.72252747  0.21666667  0.51246189]
 [ 0.4526714   0.70472222  0.76043956  0.60407927  0.69446096  0.37229965
   0.70714286  0.70879121  0.6767825   0.69943803]
 [ 0.44304787  0.73571429  0.73681319  0.71564055  0.73066071  0.53836995
   0.76577381  0.77362637  0.74011701  0.75988414]
 [ 0.35088539  0.66888889  0.70879121  0.62494352  0.66552697  0.36050557
   0.66547619  0.66593407  0.64857218  0.65980703]
 [ 0.67041343  0.82527778  0.85494505  0.80540508  0.82364036  0.48501933
   0.74138889  0.78241758  0.68818841  0.74479575]
 [ 0.14771439  0.56666667  0.69285714  0.33931812  0.53765703  0.1229613
   0.53833333  0.69395604  0.28826519  0.48869225]
 [ 0.26930579  0.64880952  0.65        0.6092474   0.63505093  0.24085664
   0.62529762  0.63351648  0.56994921  0.6054362 ]
 [ 0.16354854  0.55986111  0.62802198  0.38902586  0.51584852  0.34803774
   0.67708333  0.70659341  0.63540419  0.67375074]
 [ 0.63059952  0.80569444  0.83296703  0.77739717  0.80687838  0.40694234
   0.68944444  0.71593407  0.67063426  0.6908781 ]
 [ 0.3578258   0.66244048  0.69395604  0.62095997  0.64971031  0.16834724
   0.58125     0.60549451  0.53208244  0.56760346]
 [ 0.04766937  0.55041667  0.64835165  0.24956989  0.50140392  0.39846084
   0.69583333  0.70769231  0.65589633  0.68321104]
 [ 0.00912608  0.50472222  0.64945055  0.13402551  0.43823546  0.09626177
   0.54125     0.62857143  0.323912    0.50652831]
 [ 0.07738892  0.53388889  0.61373626  0.2707421   0.47154969  0.32247514
   0.63333333  0.73901099  0.46771546  0.61165464]
 [ 0.69274292  0.84875     0.8543956   0.83328965  0.8419058   0.43912116
   0.70777778  0.74230769  0.67349457  0.70833597]
 [ 0.04166667  0.52083333  0.85384615  0.06770032  0.48525641  0.22887989
   0.63444444  0.65879121  0.55578194  0.60901515]
 [ 0.34410958  0.64722222  0.74395604  0.58430992  0.65399622  0.38369913
   0.68184524  0.69340659  0.66880445  0.68053859]
 [ 0.16403001  0.58444444  0.68681319  0.39860806  0.56302954  0.36477513
   0.66819444  0.73076923  0.54985605  0.64754585]
 [-0.02504348  0.49545455  0.76648352  0.          0.43376812  0.00860368
   0.49702381  0.50384615  0.47771652  0.48438828]
 [ 0.28727662  0.64285714  0.64175824  0.63566667  0.63520979  0.31612206
   0.6425      0.70714286  0.53185524  0.62836828]
 [ 0.23912746  0.59833333  0.64065934  0.52559538  0.57958157  0.00564706
   0.50295455  0.74505495  0.04743416  0.44267721]
 [ 0.31645526  0.64732143  0.65714286  0.63625551  0.64219365  0.36358203
   0.68005952  0.69340659  0.66235911  0.67362701]
 [ 0.39768243  0.69077381  0.72527473  0.61554847  0.67190372  0.41638655
   0.71547619  0.71538462  0.68603793  0.71116453]
 [ 0.16842854  0.58184524  0.5978022   0.50700276  0.55747687  0.36279118
   0.66369048  0.67802198  0.63431354  0.65427572]
 [ 0.16291427  0.57944444  0.70879121  0.38118402  0.55345944  0.42945085
   0.70119048  0.69945055  0.69442085  0.69750348]
 [ 0.17887116  0.57        0.65769231  0.42038115  0.54400623  0.44833838
   0.71333333  0.75274725  0.66997731  0.71133471]
 [ 0.32614098  0.65180556  0.71703297  0.5537774   0.64183309  0.15740635
   0.58928571  0.60494505  0.53180819  0.57672999]
 [ 0.63093612  0.80888889  0.83131868  0.80035453  0.8140044   0.19534093
   0.59166667  0.67582418  0.4474958   0.57926331]]
GBM mean:
[0.30991854 0.64889743 0.71505495 0.52693988 0.62946903 0.30003902
 0.64487362 0.69498168 0.55230774 0.63094139]
---------------------------
---------------------------
BDDAE performance:
[[-5.94991648e-02  4.70512821e-01  4.82142857e-01  4.29024291e-01
   4.56144617e-01  1.24982800e-02  5.04761905e-01  7.00000000e-01
   2.23224973e-01  4.86476000e-01]
 [ 2.84083773e-01  6.42051282e-01  6.42857143e-01  6.29343225e-01
   6.35751121e-01  4.28768094e-01  7.06951872e-01  7.35714286e-01
   6.91337548e-01  7.11942372e-01]
 [ 2.54454887e-02  5.11458333e-01  5.32142857e-01  4.79098191e-01
   5.03899982e-01  1.78571429e-01  5.89285714e-01  5.89285714e-01
   5.77785869e-01  5.83764673e-01]
 [ 2.25992079e-02  5.10769231e-01  5.14285714e-01  4.79759746e-01
   4.97283323e-01  1.13751212e-01  5.52500000e-01  7.03571429e-01
   3.56327641e-01  5.27588250e-01]
 [ 3.08827521e-01  6.52139037e-01  6.75000000e-01  6.36406692e-01
   6.51989247e-01  3.50000000e-01  6.75000000e-01  6.75000000e-01
   6.57283292e-01  6.66997051e-01]
 [ 5.14285714e-01  7.57142857e-01  7.57142857e-01  7.52654532e-01
   7.55459057e-01  4.85153711e-02  5.24615385e-01  5.28571429e-01
   5.11270466e-01  5.19670021e-01]
 [ 5.47192582e-02  5.28074866e-01  5.53571429e-01  4.83178398e-01
   5.14478920e-01 -3.57142857e-02  4.82142857e-01  4.82142857e-01
   4.56214069e-01  4.69816169e-01]
 [ 3.12222869e-01  6.42397661e-01  7.25000000e-01  5.85839844e-01
   6.46341248e-01  3.17636159e-03  5.01069519e-01  5.50000000e-01
   4.27983946e-01  4.86020923e-01]
 [ 3.79320002e-01  6.65204678e-01  7.67857143e-01  5.89997124e-01
   6.74114008e-01  3.42232326e-01  6.48750000e-01  7.71428571e-01
   5.68532930e-01  6.57710619e-01]
 [ 5.71428571e-02  5.28571429e-01  5.28571429e-01  5.24243630e-01
   5.26437848e-01  2.39093143e-01  6.17435897e-01  6.28571429e-01
   5.89105720e-01  6.09048572e-01]
 [ 5.69604098e-02  5.30213904e-01  5.67857143e-01  4.50668996e-01
   5.13971365e-01  1.47989897e-01  5.64973262e-01  6.39285714e-01
   4.37564948e-01  5.35261966e-01]
 [ 4.97826943e-02  5.24064171e-01  5.64285714e-01  4.72510166e-01
   5.15287242e-01  2.78135806e-01  6.47326203e-01  6.53571429e-01
   6.23476266e-01  6.33100893e-01]
 [-8.50041675e-02  4.58333333e-01  4.67857143e-01  4.31848534e-01
   4.49036106e-01  3.40630207e-01  6.72916667e-01  6.71428571e-01
   6.68361635e-01  6.67142183e-01]
 [ 1.24899628e-01  5.57222222e-01  6.25000000e-01  4.93163776e-01
   5.51107629e-01  1.83614224e-01  5.92564103e-01  5.89285714e-01
   5.81212645e-01  5.84829565e-01]
 [ 2.07052123e-04  5.00000000e-01  6.07142857e-01  3.41589543e-01
   4.81141316e-01  5.44896484e-02  5.25555556e-01  5.64285714e-01
   4.84242564e-01  5.17072635e-01]
 [ 1.60631652e-01  5.70588235e-01  6.28571429e-01  4.81641625e-01
   5.52570635e-01  2.14249603e-01  5.86257310e-01  7.32142857e-01
   3.69441224e-01  5.58611275e-01]
 [ 4.48800267e-01  7.30481283e-01  7.42857143e-01  6.63695052e-01
   6.99122323e-01  3.09313930e-01  6.40641711e-01  7.00000000e-01
   5.67023334e-01  6.32641167e-01]
 [ 1.37719826e-01  5.58333333e-01  8.32142857e-01  3.08139046e-01
   5.55959122e-01  5.05793846e-03  5.01069519e-01  5.50000000e-01
   3.98813595e-01  4.79514407e-01]
 [ 1.99549365e-01  5.94152047e-01  6.71428571e-01  5.45857011e-01
   5.94280959e-01  2.24955064e-01  6.10769231e-01  6.21428571e-01
   5.81092674e-01  6.01378943e-01]
 [ 1.69686699e-01  5.79532164e-01  6.71428571e-01  4.82167389e-01
   5.72183793e-01 -1.16065945e-03  4.99465241e-01  5.71428571e-01
   3.15682568e-01  4.56854560e-01]
 [ 2.14653416e-01  5.88636364e-01  7.82142857e-01  4.20409322e-01
   5.89964178e-01  1.58242428e-01  5.79230769e-01  5.82142857e-01
   5.68453719e-01  5.74759667e-01]
 [ 1.42857143e-02  5.07142857e-01  5.07142857e-01  4.92437616e-01
   5.00019356e-01 -3.25768604e-02  4.83888889e-01  5.67857143e-01
   3.25657132e-01  4.57458401e-01]
 [ 4.57941511e-02  5.23958333e-01  5.35714286e-01  5.05882159e-01
   5.18700451e-01  4.43791486e-01  7.02380952e-01  8.17857143e-01
   6.46081846e-01  7.14452857e-01]
 [-7.02656076e-03  4.95897436e-01  4.92857143e-01  4.83564658e-01
   4.87851232e-01  2.27326756e-01  6.11458333e-01  6.32142857e-01
   5.71625661e-01  6.00497667e-01]
 [ 1.39142131e-01  5.68750000e-01  5.85714286e-01  5.44552619e-01
   5.62778442e-01  1.71428571e-01  5.85714286e-01  5.85714286e-01
   5.67975895e-01  5.77105190e-01]
 [ 1.34119213e-01  5.66410256e-01  5.75000000e-01  5.43312041e-01
   5.59416755e-01  1.32415392e-01  5.64358974e-01  5.75000000e-01
   5.25421827e-01  5.50524993e-01]
 [ 4.49910114e-01  7.11403509e-01  7.75000000e-01  6.83009663e-01
   7.21611938e-01  4.50000000e-01  7.25000000e-01  7.25000000e-01
   7.02416323e-01  7.14727331e-01]
 [-6.55021131e-02  4.68888889e-01  5.42857143e-01  3.79936987e-01
   4.56297994e-01  3.69580995e-01  6.76470588e-01  7.14285714e-01
   6.46815343e-01  6.78477679e-01]
 [ 3.96372399e-02  5.19444444e-01  5.67857143e-01  4.64304963e-01
   5.08987678e-01  2.78915894e-01  6.36666667e-01  6.46428571e-01
   6.17286233e-01  6.32650481e-01]
 [ 2.44376375e-01  6.14444444e-01  6.78571429e-01  5.59239499e-01
   6.10846342e-01  1.00707396e-01  5.44444444e-01  6.28571429e-01
   4.36409761e-01  5.26157021e-01]]
BDDAE mean:
[0.14572569 0.56920731 0.62       0.51124921 0.56210114 0.19126665
 0.59178886 0.6377381  0.52313739 0.58040845]
---------------------------
---------------------------
DUMMY performance:
[[0.         0.5        0.54725275 0.         0.35348485 0.
  0.5        0.7521978  0.         0.42910145]
 [0.         0.5        0.54010989 0.         0.35045455 0.
  0.5        0.62032967 0.         0.38266516]
 [0.         0.5        0.56153846 0.         0.35954545 0.
  0.5        0.48846154 0.         0.32807018]
 [0.         0.5        0.54010989 0.         0.35045455 0.
  0.5        0.70769231 0.         0.41439394]
 [0.         0.5        0.61318681 0.         0.37989836 0.
  0.5        0.51153846 0.         0.33833333]
 [0.         0.5        0.51153846 0.         0.33833333 0.
  0.5        0.53296703 0.         0.34742424]
 [0.         0.5        0.60604396 0.         0.37713156 0.
  0.5        0.51153846 0.         0.33833333]
 [0.         0.5        0.67197802 0.         0.40171278 0.
  0.5        0.62032967 0.         0.38266516]
 [0.         0.5        0.68626374 0.         0.40678524 0.
  0.5        0.70054945 0.         0.41185771]
 [0.         0.5        0.48846154 0.         0.32807018 0.
  0.5        0.53296703 0.         0.34742424]
 [0.         0.5        0.60604396 0.         0.37713156 0.
  0.5        0.59175824 0.         0.37159797]
 [0.         0.5        0.5989011  0.         0.37436477 0.
  0.5        0.61318681 0.         0.37989836]
 [0.         0.5        0.56923077 0.         0.36264069 0.
  0.5        0.5543956  0.         0.35651515]
 [0.         0.5        0.63461538 0.         0.38819876 0.
  0.5        0.54010989 0.         0.35045455]
 [0.         0.5        0.66483516 0.         0.39917655 0.
  0.5        0.63461538 0.         0.38819876]
 [0.         0.5        0.5989011  0.         0.37436477 0.
  0.5        0.67197802 0.         0.40171278]
 [0.         0.5        0.5989011  0.         0.37436477 0.
  0.5        0.5989011  0.         0.37436477]
 [0.         0.5        0.85384615 0.         0.46057692 0.
  0.5        0.59175824 0.         0.37159797]
 [0.         0.5        0.68626374 0.         0.40678524 0.
  0.5        0.54725275 0.         0.35348485]
 [0.         0.5        0.66483516 0.         0.39917655 0.
  0.5        0.62032967 0.         0.38266516]
 [0.         0.5        0.77362637 0.         0.43610145 0.
  0.5        0.51868132 0.         0.34136364]
 [0.         0.5        0.50384615 0.         0.33491228 0.
  0.5        0.64230769 0.         0.39101261]
 [0.         0.5        0.58461538 0.         0.36883117 0.
  0.5        0.7521978  0.         0.42910145]
 [0.         0.5        0.52582418 0.         0.34439394 0.
  0.5        0.56923077 0.         0.36264069]
 [0.         0.5        0.56923077 0.         0.36264069 0.
  0.5        0.50384615 0.         0.33491228]
 [0.         0.5        0.54010989 0.         0.35045455 0.
  0.5        0.54725275 0.         0.35348485]
 [0.         0.5        0.68626374 0.         0.40678524 0.
  0.5        0.51153846 0.         0.33833333]
 [0.         0.5        0.63461538 0.         0.38819876 0.
  0.5        0.60604396 0.         0.37713156]
 [0.         0.5        0.62747253 0.         0.38543196 0.
  0.5        0.54725275 0.         0.35348485]
 [0.         0.5        0.62747253 0.         0.38543196 0.
  0.5        0.64230769 0.         0.39101261]]
DUMMY mean:
[0.         0.5        0.61053114 0.         0.37752778 0.
 0.5        0.59278388 0.         0.37077456]
---------------------------
Current folder: C:\Users\Javier\Dropbox\c_sldl_1_2_26
-------------------------------------
----- RESULTS from .csv files ------
-------------------------------------
---------------------------
ALG Means: 
-rows: alg : KNN = 0; DT = 1; RF = 2; SVM = 3; GBM = 4; BDDAE = 5; DUMMY = 5
columns:
'val_cohen','val_uar', 'val_acc', 'val_gm',  'val_f1',  'aro_cohen','aro_uar', 'aro_acc', 'aro_gm',  'aro_f1'
-------------------------------------------------------------
  v_c   v_u   v_a   v_g   v_f1  a_c   a_u   a_a   a_g   a_f1
[[0.331 0.663 0.704 0.611 0.658 0.335 0.666 0.696 0.621 0.658]
 [0.304 0.651 0.678 0.596 0.642 0.301 0.658 0.674 0.63  0.65 ]
 [0.36  0.672 0.702 0.638 0.663 0.36  0.67  0.696 0.641 0.663]
 [0.102 0.549 0.65  0.175 0.463 0.112 0.555 0.642 0.203 0.471]
 [0.31  0.649 0.715 0.527 0.629 0.3   0.645 0.695 0.552 0.631]
 [0.146 0.569 0.62  0.511 0.562 0.191 0.592 0.638 0.523 0.58 ]
 [0.    0.5   0.611 0.    0.378 0.    0.5   0.593 0.    0.371]]
-------------------------------------------------------------
Standard Deviation of each metric:
[[0.186 0.092 0.081 0.142 0.095 0.152 0.077 0.064 0.127 0.082]
 [0.165 0.086 0.082 0.126 0.088 0.134 0.068 0.063 0.09  0.068]
 [0.164 0.085 0.084 0.119 0.088 0.122 0.067 0.064 0.092 0.068]
 [0.176 0.083 0.084 0.268 0.128 0.174 0.086 0.068 0.285 0.132]
 [0.194 0.095 0.072 0.215 0.111 0.136 0.069 0.061 0.159 0.08 ]
 [0.158 0.077 0.1   0.097 0.08  0.144 0.07  0.077 0.121 0.078]
 [0.    0.    0.078 0.    0.029 0.    0.    0.072 0.    0.028]]
-------------------------------------------------------------
std_dev/mean [percentage]:
[[ 56.  14.  12.  23.  14.  45.  12.   9.  20.  12.]
 [ 54.  13.  12.  21.  14.  44.  10.   9.  14.  10.]
 [ 46.  13.  12.  19.  13.  34.  10.   9.  14.  10.]
 [172.  15.  13. 153.  28. 156.  15.  11. 140.  28.]
 [ 63.  15.  10.  41.  18.  45.  11.   9.  29.  13.]
 [108.  14.  16.  19.  14.  75.  12.  12.  23.  13.]
 [  0.   0.  13.   0.   8.   0.   0.  12.   0.   8.]]
-------------------------------------
Current folder: C:\Users\Javier\Dropbox\c_sldl_1_2_26
-------------------------------------
----- RESULTS ------
-------------------------------------
Window size (sec):  8.992
step (sec):  8.992
overlap:  True
perc. of overlap:  0.0
overlap duration (sec):  0.0
Number of windows / instances:  137
Elapsed time: 420.33635783990223 minutes
Elapsed time: 7.005605963998371 hours
