2024-03-16 16:15:57.956440: I tensorflow/core/util/port.cc:113] oneDNN custom operations are on. You may see slightly different numerical results due to floating-point round-off errors from different computation orders. To turn them off, set the environment variable `TF_ENABLE_ONEDNN_OPTS=0`.
2024-03-16 16:16:01.571961: I tensorflow/core/util/port.cc:113] oneDNN custom operations are on. You may see slightly different numerical results due to floating-point round-off errors from different computation orders. To turn them off, set the environment variable `TF_ENABLE_ONEDNN_OPTS=0`.
2024-03-16 16:16:10.526732: I tensorflow/core/platform/cpu_feature_guard.cc:210] This TensorFlow binary is optimized to use available CPU instructions in performance-critical operations.
To enable the following instructions: AVX2 FMA, in other operations, rebuild TensorFlow with the appropriate compiler flags.
    
    
-------------------------------
participant:  1
-------------------------------
    
    
participant:  1
corriendo en PC gamer:
Window size (sec):  16.0
step (sec):  16.0
overlap:  True
perc. of overlap:  0.0
overlap duration (sec):  0.0
Nearest multiple of 16 to 16000 is: 16000
Nearest multiple of 16 to 16000 is: 16000
['gsr_chunks', 'ppg_chunks', 'val_chunks', 'aro_chunks', 'time_chunks', 'tag_chunks', 'video']
C:\Users\Javier\Dropbox\c_sldl_1_2_14\functions.py:880: FutureWarning: ChainedAssignmentError: behaviour will change in pandas 3.0!

[1m1/1[0m [32m━━━━━━━━━━━━━━━━━━━━[0m[37m[0m [1m0s[0m 109ms/step
predicted [0.7657676  0.5536667  0.6882502  0.687202   0.8760855  0.54690063
 0.7439338  0.9291313  0.81382895 0.66515875 0.25941333 0.32812124
 0.04138953 0.67163384 0.23616765 0.91026664]
predicted [1 1 1 1 1 1 1 1 1 1 0 0 0 1 0 1]
expected [False False False  True  True  True  True False  True  True  True False
 False  True  True  True]
accuracy: 0.625
confusion matrix: 
[[2 4]
 [2 8]]
              precision    recall  f1-score   support

       False       0.50      0.33      0.40         6
        True       0.67      0.80      0.73        10

    accuracy                           0.62        16
   macro avg       0.58      0.57      0.56        16
weighted avg       0.60      0.62      0.60        16

macro avg f1-score: 0.5636363636363637
macro avg (UAR): 0.5666666666666667
Sensitivity:  0.3333333333333333
Specificity:  0.8
g-mean:  0.5163977794943222
-------- Model Performance ----------: 
accuracy:  [0.5625 0.625  0.4375 0.6875 0.5625 0.75   0.6875 0.625  0.5625 0.625 ]
gmean:  [0.48304589 0.59160798 0.40824829 0.63245553 0.48304589 0.73029674
 0.68313005 0.51639778 0.57735027 0.51639778]
f1_score:  [0.51515152 0.6        0.41700405 0.65367965 0.51515152 0.73333333
 0.67611336 0.56363636 0.56078431 0.56363636]
UAR:  [0.51666667 0.6        0.41666667 0.65       0.51666667 0.73333333
 0.68333333 0.56666667 0.61666667 0.56666667]
Cohen Kappa score:  [ 0.03448276  0.2        -0.16129032  0.31034483  0.03448276  0.46666667
  0.35483871  0.14285714  0.2         0.14285714]
arousal and valece = ok
------------- Evaluating model --------------
-------------------------------------
-------------------------------------
participant:  30
-------------------------------------
----- RESULTS ------
-------------------------------------
Window size (sec):  16.0
step (sec):  16.0
overlap:  True
perc. of overlap:  0.0
overlap duration (sec):  0.0
Number of windows / instances:  76
-rows: alg : KNN = 0; DT = 1; RF = 2; SVM = 3; GBM = 4; BDDAE = 5; DUMMY = 5
columns:
'val_cohen','val_uar', 'val_acc', 'val_gm',  'val_f1',  'aro_cohen','aro_uar', 'aro_acc', 'aro_gm',  'aro_f1'
-------------------------------------------------------------
  v_c   v_u   v_a   v_g   v_f1  a_c   a_u   a_a   a_g   a_f1
[[ 0.744  0.88   0.873  0.874  0.869  0.445  0.727  0.746  0.671  0.707]
 [ 0.547  0.775  0.809  0.742  0.779  0.289  0.642  0.671  0.562  0.622]
 [ 0.516  0.804  0.818  0.814  0.799  0.33   0.713  0.746  0.698  0.703]
 [ 0.     0.5    0.618  0.     0.382  0.     0.5    0.646  0.     0.392]
 [ 0.5    0.784  0.795  0.728  0.78   0.312  0.662  0.725  0.508  0.641]
 [ 0.173  0.587  0.612  0.562  0.58  -0.178  0.412  0.469  0.225  0.375]
 [ 0.     0.5    0.618  0.     0.382  0.     0.5    0.646  0.     0.392]]
participant performance loaded
    
    
-------------------------------
LAST participant's saved data: 
30
-------------------------------
    
    
---------------------------
KNN performance:
[[ 0.59426219  0.795       0.80357143  0.77439449  0.78948413  0.2719888
   0.63166667  0.73928571  0.4902536   0.62406926]
 [ 0.36266667  0.68416667  0.68392857  0.67464272  0.67702381  0.33645658
   0.65666667  0.73928571  0.53524589  0.64881674]
 [ 0.35770641  0.67416667  0.69821429  0.62000321  0.65828283  0.32862319
   0.6625      0.67142857  0.64250338  0.65789683]
 [ 0.3313338   0.6675      0.67142857  0.63176905  0.65087302  0.15705732
   0.57833333  0.64642857  0.46963371  0.56891608]
 [ 0.56268222  0.77166667  0.81428571  0.70117801  0.76673882  0.37286325
   0.69166667  0.68035714  0.66364639  0.67198413]
 [ 0.29373839  0.65        0.64464286  0.62209097  0.63285714  0.56722567
   0.77833333  0.79285714  0.76535861  0.78041486]
 [ 0.4001746   0.70333333  0.7         0.68957746  0.69029221  0.31807172
   0.6625      0.65535714  0.62339468  0.63862554]
 [ 0.6211226   0.79        0.85357143  0.76096165  0.80560606  0.56411424
   0.79        0.79285714  0.72783844  0.7646917 ]
 [ 0.13463801  0.56333333  0.66071429  0.35657659  0.52837496 -0.02628603
   0.49833333  0.61785714  0.2093049   0.45750583]
 [ 0.24409513  0.62083333  0.61428571  0.59364526  0.6047619   0.02813378
   0.51666667  0.51428571  0.45422947  0.49896825]
 [ 0.09327451  0.54916667  0.54821429  0.54188793  0.54103175  0.44232282
   0.71        0.74642857  0.68448605  0.71467172]
 [ 0.53073583  0.7575      0.79107143  0.69191678  0.75241703  0.35166082
   0.675       0.68928571  0.65720767  0.66953824]
 [ 0.25002999  0.63416667  0.63392857  0.58562675  0.61510462  0.09080621
   0.5425      0.55178571  0.51049086  0.53390332]
 [ 0.03006033  0.52166667  0.60178571  0.27255046  0.48019148  0.32175136
   0.6525      0.6875      0.56319068  0.63486846]
 [ 0.21772626  0.615       0.67142857  0.49699621  0.58835498  0.32619586
   0.67333333  0.70892857  0.61576207  0.65722583]
 [ 0.01135365  0.5025      0.54464286  0.34960033  0.47628788  0.30502834
   0.63833333  0.71071429  0.55843054  0.63522145]
 [ 0.22536232  0.615       0.61785714  0.59698284  0.60374459  0.3484156
   0.66416667  0.69642857  0.58267085  0.64879509]
 [ 0.16090145  0.60952381  0.80357143  0.27293675  0.5497952   0.25879789
   0.63416667  0.62142857  0.61415098  0.6143254 ]
 [ 0.32843076  0.67166667  0.72857143  0.57672196  0.65808636  0.17712533
   0.5925      0.59107143  0.55515655  0.57781746]
 [ 0.46445533  0.735       0.79107143  0.61909507  0.70899545  0.06162409
   0.53        0.6125      0.34655154  0.50613831]
 [ 0.07053221  0.56166667  0.66964286  0.35295653  0.52086414 -0.09319955
   0.45416667  0.45714286  0.38030431  0.43481241]
 [ 0.14013378  0.57083333  0.57321429  0.48607207  0.54543651  0.39646922
   0.6875      0.725       0.64904614  0.68681097]
 [ 0.19624976  0.59416667  0.62142857  0.5546025   0.58559885  0.31882353
   0.65833333  0.78214286  0.46435985  0.64023477]
 [-0.01579785  0.4925      0.50535714  0.43191681  0.48171717  0.50325375
   0.7475      0.76607143  0.71239984  0.7386039 ]
 [ 0.49636975  0.75166667  0.75        0.73699928  0.74184343  0.49736232
   0.75        0.75178571  0.68746622  0.72805556]
 [ 0.25833333  0.63        0.63928571  0.50220843  0.58579726  0.3083913
   0.6575      0.65178571  0.57614998  0.62912698]
 [ 0.42633053  0.71666667  0.77678571  0.61845557  0.70522145  0.54436232
   0.775       0.775       0.75613279  0.76519841]
 [ 0.34125577  0.68166667  0.70714286  0.55677641  0.63801254  0.48557732
   0.73833333  0.76785714  0.68936497  0.73527417]
 [-0.08527082  0.45583333  0.49642857  0.34182897  0.44146825  0.04110201
   0.5225      0.53928571  0.43138165  0.50743146]
 [ 0.74417306  0.88        0.87321429  0.87426999  0.86928571  0.44468944
   0.72666667  0.74642857  0.67144476  0.70650072]]
KNN mean:
[0.292902   0.64887302 0.68297619 0.56284137 0.62978498 0.30162695
 0.64988889 0.68095238 0.57625191 0.63588146]
---------------------------
---------------------------
DT performance:
[[ 0.52705929  0.7375      0.75535714  0.79155955  0.73577201  0.26433384
   0.60833333  0.68214286  0.49155109  0.56983128]
 [ 0.25643956  0.68416667  0.68571429  0.6173763   0.67612554  0.42240653
   0.72166667  0.73928571  0.69528261  0.71195527]
 [ 0.44551127  0.68416667  0.6875      0.65767147  0.67323232  0.12787291
   0.575       0.575       0.5294607   0.5607684 ]
 [ 0.34443302  0.655       0.64464286  0.6247541   0.63051587  0.27078595
   0.59166667  0.66071429  0.45059687  0.55868465]
 [ 0.35639748  0.72083333  0.7375      0.62830499  0.69814214  0.42264103
   0.72083333  0.71071429  0.65342748  0.70444444]
 [ 0.37441472  0.6875      0.69107143  0.7217927   0.68039683  0.60462227
   0.79666667  0.80357143  0.81681255  0.79386724]
 [ 0.06517433  0.61083333  0.60535714  0.45780698  0.58201299  0.26382051
   0.58333333  0.58035714  0.58177531  0.56722222]
 [ 0.6955042   0.90166667  0.90357143  0.92524332  0.88932179  0.56970621
   0.75666667  0.7625      0.75422258  0.74039683]
 [ 0.28889389  0.645       0.68392857  0.60106147  0.61919913  0.24938207
   0.685       0.68571429  0.54613815  0.65299728]
 [ 0.12946154  0.575       0.57321429  0.51674502  0.56785714  0.17264103
   0.61666667  0.61071429  0.49954945  0.59358225]
 [ 0.12035165  0.60416667  0.61964286  0.52857544  0.59238095  0.33251717
   0.6375      0.65357143  0.64295846  0.60873932]
 [ 0.58079211  0.76833333  0.76607143  0.70621297  0.75705988  0.39812332
   0.70583333  0.71428571  0.6308655   0.6900938 ]
 [ 0.29754931  0.595       0.60714286  0.56465054  0.57764791  0.05664935
   0.52666667  0.52857143  0.48528316  0.49458874]
 [ 0.01702144  0.51333333  0.5625      0.31284167  0.49844156  0.13923834
   0.59583333  0.60535714  0.50610151  0.57904762]
 [ 0.13992298  0.58166667  0.61607143  0.52707039  0.54463203  0.01337156
   0.52        0.55178571  0.32574511  0.49960317]
 [ 0.01129322  0.49416667  0.525       0.48514651  0.4786544   0.30838828
   0.645       0.68392857  0.62221175  0.61348485]
 [ 0.51238418  0.76        0.76785714  0.74427663  0.74776335  0.24859247
   0.6375      0.65357143  0.50826599  0.61648268]
 [ 0.44305831  0.72619048  0.82678571  0.34364743  0.67230103  0.42410803
   0.63083333  0.64642857  0.65265477  0.62388889]
 [ 0.48195095  0.72833333  0.725       0.62721394  0.6849026   0.29961829
   0.62083333  0.63392857  0.61524837  0.60261905]
 [ 0.38156335  0.65666667  0.68928571  0.6454941   0.64257576  0.08692023
   0.53083333  0.53571429  0.54680123  0.51507937]
 [ 0.25280621  0.63666667  0.72142857  0.4714427   0.59959374 -0.01026938
   0.55        0.55535714  0.53096787  0.53853175]
 [ 0.04012821  0.55833333  0.55        0.48977031  0.53448413  0.27820336
   0.66333333  0.66071429  0.61991017  0.64464286]
 [ 0.2336414   0.63        0.64464286  0.56862547  0.59771284  0.23689585
   0.66        0.73392857  0.57468709  0.64789044]
 [ 0.26129117  0.64        0.65178571  0.50249795  0.63301587  0.49825253
   0.67083333  0.67321429  0.71177242  0.65797619]
 [ 0.2553035   0.7         0.7         0.67958976  0.6925      0.37789855
   0.76666667  0.76607143  0.69340325  0.76301587]
 [ 0.11297148  0.52166667  0.51785714  0.52802146  0.49638889  0.34752338
   0.69083333  0.68214286  0.66909743  0.66497475]
 [ 0.44243637  0.70666667  0.76428571  0.55346561  0.7060817   0.35062582
   0.69166667  0.69642857  0.58455745  0.67365079]
 [ 0.0541527   0.52583333  0.54107143  0.39672125  0.49731602  0.48475849
   0.73333333  0.74107143  0.71845557  0.69642691]
 [ 0.15931884  0.57833333  0.60178571  0.60895063  0.54949328  0.34295238
   0.615       0.625       0.64684103  0.60640332]
 [ 0.54672208  0.775       0.80892857  0.74226056  0.7789899   0.28862717
   0.64166667  0.67142857  0.561988    0.62210512]]
DT mean:
[0.29426496 0.65340079 0.6725     0.58562637 0.63448372 0.29570692
 0.64633333 0.66077381 0.59555443 0.62709984]
---------------------------
---------------------------
RF performance:
[[ 0.58297914  0.765       0.78571429  0.7727304   0.74907648  0.17718427
   0.57        0.69464286  0.50714127  0.55815851]
 [ 0.32066667  0.70916667  0.70892857  0.61194746  0.70430375  0.28752316
   0.59833333  0.65714286  0.66294632  0.57618881]
 [ 0.34866778  0.63583333  0.65        0.6186842   0.6265873   0.38866667
   0.74166667  0.73928571  0.67291636  0.73068903]
 [ 0.33564103  0.5575      0.5625      0.60332335  0.54255411  0.1671978
   0.455       0.58035714  0.41305354  0.44780497]
 [ 0.55723443  0.72166667  0.74285714  0.76619816  0.69893939  0.20382051
   0.725       0.71071429  0.6568603   0.70198413]
 [ 0.50148718  0.6875      0.68571429  0.68572781  0.66876984  0.66413043
   0.83166667  0.84107143  0.72569916  0.83295455]
 [ 0.1278323   0.60333333  0.62142857  0.66483356  0.58292569  0.28966667
   0.5875      0.58928571  0.6043659   0.57452381]
 [ 0.78820607  0.9         0.93214286  0.86704638  0.90727273  0.41621457
   0.72833333  0.73035714  0.68134564  0.72257937]
 [ 0.19444193  0.68666667  0.72142857  0.62221635  0.65571068  0.18438339
   0.58166667  0.66071429  0.28008548  0.56989899]
 [ 0.13452991  0.5125      0.5         0.53634256  0.47092352  0.1359101
   0.6         0.60714286  0.53430826  0.56998918]
 [ 0.1115942   0.53666667  0.55357143  0.45638642  0.5184127   0.50911354
   0.73083333  0.7375      0.68311759  0.69929126]
 [ 0.54642895  0.79        0.79107143  0.73407388  0.77699856  0.40271429
   0.66        0.675       0.52435315  0.6515404 ]
 [ 0.19177469  0.61833333  0.64285714  0.58894699  0.60236846  0.15511503
   0.50833333  0.53035714  0.50578293  0.4956746 ]
 [-0.03997072  0.565       0.62857143  0.45495493  0.53642691  0.28482163
   0.68166667  0.71071429  0.52220402  0.66330281]
 [ 0.31600334  0.57        0.62857143  0.47613683  0.555671    0.07201067
   0.565       0.59107143  0.48953774  0.53838384]
 [-0.08603838  0.57333333  0.61428571  0.40179904  0.5520474   0.42463132
   0.75666667  0.79107143  0.67962357  0.7459596 ]
 [ 0.57212544  0.80583333  0.80714286  0.8295749   0.79950216  0.36285883
   0.74333333  0.74107143  0.78315601  0.71545094]
 [ 0.33574661  0.71071429  0.84285714  0.43400337  0.65335997  0.44302676
   0.60416667  0.61071429  0.55920542  0.57862027]
 [ 0.37313725  0.71        0.75535714  0.56005588  0.69126263  0.49085082
   0.72083333  0.73214286  0.60474016  0.7187482 ]
 [ 0.41229907  0.645       0.70178571  0.70074736  0.61558442  0.01536228
   0.44083333  0.50892857  0.3289975   0.4255303 ]
 [-0.05383244  0.52333333  0.68392857  0.29725817  0.47718448  0.05869565
   0.56666667  0.56428571  0.38627553  0.5491811 ]
 [ 0.19303233  0.58333333  0.57857143  0.57217596  0.55215368  0.24457125
   0.6475      0.65714286  0.59757456  0.63133838]
 [ 0.17591266  0.515       0.55178571  0.52811634  0.48898268  0.20509804
   0.63166667  0.7625      0.35819715  0.59311522]
 [ 0.05318841  0.62583333  0.62142857  0.5067382   0.60361111  0.39709429
   0.72083333  0.73571429  0.63542883  0.71337302]
 [ 0.45428894  0.70416667  0.7         0.67219293  0.68702381  0.50166667
   0.775       0.77678571  0.75510393  0.77059524]
 [ 0.21505929  0.60916667  0.59107143  0.41585237  0.57743506  0.20176525
   0.68166667  0.68571429  0.65270261  0.67577201]
 [ 0.36441116  0.73833333  0.77678571  0.57226323  0.70434538  0.38797993
   0.7375      0.73392857  0.61983595  0.72313492]
 [-0.00988142  0.57833333  0.60892857  0.51656183  0.54471695  0.33163021
   0.7175      0.73928571  0.67512352  0.71118687]
 [-0.09871802  0.55        0.60178571  0.50467824  0.52962121  0.24822035
   0.57833333  0.59642857  0.5365162   0.56466811]
 [ 0.51603455  0.80416667  0.81785714  0.81363411  0.79949856  0.33039593
   0.71333333  0.74642857  0.6977481   0.70344877]]
RF mean:
[0.28114274 0.65119048 0.68029762 0.59284004 0.62910902 0.29941068
 0.65336111 0.68125    0.57779822 0.63843624]
---------------------------
---------------------------
SVM performance:
[[ 0.          0.5         0.55357143  0.          0.35571096  0.
   0.5         0.73571429  0.          0.42380952]
 [ 0.          0.5         0.55357143  0.          0.35571096  0.
   0.5         0.66071429  0.          0.3974359 ]
 [ 0.          0.5         0.57857143  0.          0.36596737  0.06136364
   0.52916667  0.54107143  0.10773503  0.39075758]
 [ 0.          0.5         0.54107143  0.          0.35058275  0.
   0.5         0.69821429  0.          0.41062271]
 [ 0.07692308  0.53333333  0.65714286  0.11547005  0.44324009  0.50971906
   0.75833333  0.75357143  0.72679439  0.74130952]
 [ 0.01136364  0.50416667  0.51607143  0.05773503  0.36166667  0.33583916
   0.65416667  0.69821429  0.52485587  0.6230303 ]
 [ 0.          0.5         0.59107143  0.          0.37109557  0.2
   0.6         0.57142857  0.37790779  0.51047619]
 [ 0.          0.5         0.68571429  0.          0.40622711  0.
   0.5         0.59107143  0.          0.37109557]
 [ 0.          0.5         0.68571429  0.          0.40622711  0.
   0.5         0.71071429  0.          0.41501832]
 [ 0.          0.5         0.51428571  0.          0.33909091  0.
   0.5         0.52857143  0.          0.34545455]
 [ 0.          0.5         0.57857143  0.          0.36596737  0.
   0.5         0.61785714  0.          0.38152681]
 [ 0.          0.5         0.60357143  0.          0.37622378  0.
   0.5         0.60357143  0.          0.37622378]
 [ 0.          0.5         0.57857143  0.          0.36596737  0.
   0.5         0.56607143  0.          0.36083916]
 [ 0.          0.5         0.66071429  0.          0.3974359   0.
   0.5         0.56607143  0.          0.36083916]
 [ 0.          0.5         0.67321429  0.          0.4018315   0.
   0.5         0.66071429  0.          0.3974359 ]
 [ 0.          0.5         0.60357143  0.          0.37622378  0.
   0.5         0.67321429  0.          0.4018315 ]
 [ 0.          0.5         0.57857143  0.          0.36596737  0.
   0.5         0.59107143  0.          0.37109557]
 [ 0.          0.5         0.83035714  0.          0.45318681  0.
   0.5         0.56607143  0.          0.36083916]
 [ 0.          0.5         0.68571429  0.          0.40622711  0.
   0.5         0.54107143  0.          0.35058275]
 [ 0.          0.5         0.67321429  0.          0.4018315   0.
   0.5         0.64642857  0.          0.39213287]
 [ 0.          0.5         0.76428571  0.          0.43278388  0.
   0.5         0.51428571  0.          0.33909091]
 [ 0.          0.5         0.51428571  0.          0.33909091  0.
   0.5         0.61785714  0.          0.38152681]
 [ 0.          0.5         0.57857143  0.          0.36596737  0.
   0.5         0.75        0.          0.4282967 ]
 [ 0.          0.5         0.54107143  0.          0.35058275  0.
   0.5         0.59107143  0.          0.37109557]
 [ 0.          0.5         0.56607143  0.          0.36083916 -0.05227273
   0.475       0.4875      0.          0.32666667]
 [ 0.          0.5         0.55357143  0.          0.35571096 -0.02727273
   0.4875      0.53928571  0.          0.34934732]
 [ 0.          0.5         0.69821429  0.          0.41062271  0.24256856
   0.62083333  0.62142857  0.57915499  0.60136364]
 [ 0.          0.5         0.63214286  0.          0.38682984  0.
   0.5         0.61785714  0.          0.38152681]
 [ 0.          0.5         0.60357143  0.          0.37622378  0.
   0.5         0.55357143  0.          0.35571096]
 [ 0.          0.5         0.61785714  0.          0.38152681  0.
   0.5         0.64642857  0.          0.39213287]]
SVM mean:
[0.00294289 0.50125    0.61375    0.0057735  0.38088534 0.0423315
 0.52083333 0.61535714 0.07721494 0.41030384]
---------------------------
---------------------------
GBM performance:
[[ 0.54407792  0.7525      0.76785714  0.7770408   0.75025613  0.13647059
   0.55666667  0.74642857  0.21213203  0.524001  ]
 [ 0.30171429  0.64833333  0.65892857  0.61475904  0.63615801  0.27213101
   0.64        0.72678571  0.53385438  0.625     ]
 [ 0.54051239  0.75833333  0.78928571  0.70957541  0.75320707  0.24330769
   0.62083333  0.61607143  0.60015105  0.60809524]
 [ 0.23212401  0.62166667  0.61607143  0.51714262  0.59351732  0.10531182
   0.52        0.6625      0.15399244  0.45649739]
 [ 0.4764015   0.7375      0.77678571  0.66716545  0.72453463  0.37226087
   0.7         0.70178571  0.66823397  0.68604618]
 [ 0.39018415  0.69166667  0.69642857  0.69483595  0.68253968  0.58034277
   0.78416667  0.80714286  0.75410238  0.781443  ]
 [ 0.16735667  0.61        0.61785714  0.48729173  0.58098124  0.36382051
   0.7         0.69285714  0.68418471  0.68821429]
 [ 0.73623282  0.86333333  0.89107143  0.85368903  0.8630303   0.53023012
   0.79333333  0.80357143  0.67800138  0.78585137]
 [ 0.2265891   0.60166667  0.70892857  0.41157074  0.58675991 -0.02352941
   0.49        0.69642857  0.          0.40971528]
 [ 0.28712821  0.62916667  0.62678571  0.61596844  0.62035714  0.12469565
   0.54583333  0.55178571  0.53543935  0.53448413]
 [ 0.12623113  0.5975      0.62142857  0.42452302  0.57108059  0.51758799
   0.74583333  0.77321429  0.68388531  0.73343989]
 [ 0.55163561  0.74333333  0.77857143  0.68646278  0.72851204  0.43222503
   0.6825      0.70178571  0.68351624  0.68054834]
 [ 0.14047098  0.57166667  0.59285714  0.44638308  0.53424964  0.1325079
   0.5675      0.58035714  0.50851857  0.5483189 ]
 [-0.05738849  0.47333333  0.60357143  0.1093748   0.41614219  0.35174427
   0.63416667  0.65357143  0.6055347   0.62446248]
 [-0.07745637  0.45        0.58035714  0.11488533  0.3916145  -0.06470588
   0.45666667  0.59285714  0.03651484  0.3795732 ]
 [ 0.00242424  0.50083333  0.59107143  0.10245639  0.40670163  0.32476406
   0.67666667  0.76428571  0.47315104  0.66567599]
 [ 0.58017805  0.78916667  0.79464286  0.75767409  0.77659452  0.2563974
   0.61166667  0.63571429  0.51668438  0.58414141]
 [ 0.15238095  0.57619048  0.81607143  0.2         0.54758242  0.33586648
   0.66833333  0.675       0.64523295  0.65968254]
 [ 0.20232708  0.59        0.71428571  0.31009536  0.55599234  0.44718351
   0.70833333  0.72142857  0.65082205  0.69634199]
 [ 0.45924524  0.70666667  0.75714286  0.70691772  0.70808081  0.10598072
   0.54666667  0.65892857  0.18321796  0.46912587]
 [ 0.04333333  0.51666667  0.7625      0.07071068  0.46492674 -0.09423077
   0.4625      0.46607143  0.35870429  0.43240981]
 [ 0.11111111  0.53333333  0.525       0.49230326  0.5066811   0.18507728
   0.58666667  0.63214286  0.47816612  0.56926407]
 [ 0.44555901  0.6925      0.72321429  0.59832154  0.66774004  0.03529412
   0.49666667  0.72321429  0.07071068  0.45041625]
 [ 0.34011858  0.71333333  0.72142857  0.67973238  0.70238095  0.49997647
   0.75        0.7625      0.72693715  0.74277056]
 [ 0.40972373  0.70333333  0.725       0.62746335  0.68072872  0.45766667
   0.70416667  0.70178571  0.72196506  0.69646825]
 [ 0.22689902  0.61416667  0.62142857  0.55590328  0.58764791  0.31192509
   0.6475      0.64107143  0.58755748  0.61781746]
 [ 0.27420814  0.62666667  0.7375      0.46065041  0.61279887  0.4106466
   0.70833333  0.70892857  0.63533712  0.69452381]
 [ 0.33148265  0.655       0.69821429  0.56787736  0.6344733   0.14424745
   0.58        0.63035714  0.42562787  0.549551  ]
 [ 0.29393208  0.6425      0.69642857  0.48476482  0.61290793  0.17240405
   0.58583333  0.6         0.47114203  0.5585101 ]
 [ 0.49954291  0.78416667  0.79464286  0.72827395  0.77997475  0.31233301
   0.6625      0.725       0.50819866  0.64135115]]
GBM mean:
[0.29860933 0.64648413 0.70017857 0.51579376 0.62260508 0.26599777
 0.62777778 0.67845238 0.49305054 0.6031247 ]
---------------------------
---------------------------
BDDAE performance:
[[-0.27590541  0.36190476  0.375       0.33403291  0.35533146  0.11777778
   0.55416667  0.71875     0.33664811  0.54171591]
 [ 0.02680762  0.51269841  0.5125      0.49650803  0.50352771  0.55009162
   0.77727273  0.80625     0.76205099  0.77155073]
 [-0.19248604  0.40714286  0.43125     0.25883728  0.37707028  0.05
   0.525       0.525       0.47431169  0.50743767]
 [-0.07650712  0.46111111  0.48125     0.41890996  0.44937432  0.16874296
   0.57636364  0.6875      0.42783627  0.56186721]
 [ 0.24942625  0.62333333  0.65        0.60015349  0.62068323  0.3375
   0.66875     0.66875     0.65051343  0.66023173]
 [ 0.4         0.7         0.7         0.67637144  0.68968841  0.08797979
   0.54761905  0.55        0.47198773  0.51793582]
 [ 0.053732    0.52380952  0.55        0.45695254  0.5028779  -0.0125
   0.49375     0.49375     0.41908154  0.45840908]
 [ 0.37302087  0.67727273  0.74375     0.64491882  0.68269904  0.02438852
   0.51349206  0.53125     0.46488852  0.49783323]
 [ 0.29170163  0.63090909  0.725       0.56598718  0.63447861  0.50960249
   0.72        0.825       0.65003254  0.73974306]
 [ 0.          0.5         0.5         0.43213214  0.47920323  0.15
   0.575       0.575       0.54477445  0.56047668]
 [-0.04350911  0.47936508  0.5125      0.3016952   0.43186861  0.16978022
   0.58        0.6375      0.45900586  0.56287712]
 [ 0.19085733  0.595       0.63125     0.5614258   0.59015854  0.40239988
   0.71        0.7125      0.69623186  0.69561977]
 [-0.08379226  0.45793651  0.46875     0.414924    0.44180467  0.2357774
   0.61666667  0.61875     0.57927756  0.59822086]
 [-0.08148556  0.46545455  0.55        0.32048075  0.44949117  0.14031703
   0.57142857  0.575       0.55897729  0.56521878]
 [-0.07076731  0.46272727  0.53125     0.36847335  0.44510635  0.092553
   0.54181818  0.625       0.43798193  0.52563348]
 [ 0.01813977  0.51166667  0.58125     0.35535678  0.47902553  0.08300537
   0.53181818  0.69375     0.21702394  0.48321566]
 [ 0.50505208  0.75634921  0.75625     0.74703576  0.75001945  0.13447114
   0.56666667  0.5875      0.50305632  0.55302959]
 [ 0.37614651  0.7025641   0.7875      0.66907394  0.68219012 -0.13244978
   0.43412698  0.45625     0.37789314  0.41894916]
 [ 0.13849848  0.56363636  0.6625      0.45397994  0.55380755  0.17338296
   0.58809524  0.59375     0.54875527  0.57804671]
 [-0.03804636  0.48181818  0.5875      0.33033538  0.46369501  0.09738253
   0.55166667  0.60625     0.42320579  0.52495841]
 [-0.06444444  0.47083333  0.66875     0.1344739   0.43854294  0.15
   0.575       0.575       0.55395369  0.56477492]
 [ 0.0125      0.50625     0.50625     0.38688789  0.46338214  0.0606597
   0.52833333  0.58125     0.46320973  0.51639722]
 [ 0.20084873  0.60396825  0.60625     0.58300522  0.59262032  0.36398268
   0.65416667  0.79375     0.57941802  0.67031724]
 [ 0.1836484   0.59206349  0.6         0.56613557  0.58156955  0.14550502
   0.57301587  0.5875      0.54162579  0.56325609]
 [ 0.0920114   0.54761905  0.55        0.51565143  0.53160859  0.
   0.5         0.5         0.48171193  0.49144413]
 [ 0.31735317  0.65634921  0.66875     0.63933402  0.65391549  0.09210943
   0.54603175  0.5625      0.50080078  0.53120913]
 [ 0.25268362  0.62        0.6875      0.5794894   0.62000602  0.5875
   0.79375     0.79375     0.78018939  0.7884076 ]
 [-0.13348415  0.43        0.4625      0.39246167  0.42316907  0.43188245
   0.70333333  0.75        0.67311306  0.70988519]
 [ 0.0060449   0.50166667  0.51875     0.48544592  0.49550773  0.51539217
   0.7547619   0.76875     0.73052043  0.74979881]
 [ 0.17252397  0.58666667  0.6125      0.56219762  0.57984905 -0.17768622
   0.41166667  0.46875     0.22479387  0.37488484]]
BDDAE mean:
[0.0933523  0.54633721 0.58729167 0.47508891 0.53207574 0.18498494
 0.58945869 0.62895833 0.51776236 0.57611153]
---------------------------
---------------------------
DUMMY performance:
[[0.         0.5        0.55357143 0.         0.35571096 0.
  0.5        0.73571429 0.         0.42380952]
 [0.         0.5        0.55357143 0.         0.35571096 0.
  0.5        0.66071429 0.         0.3974359 ]
 [0.         0.5        0.57857143 0.         0.36596737 0.
  0.5        0.51428571 0.         0.33909091]
 [0.         0.5        0.54107143 0.         0.35058275 0.
  0.5        0.69821429 0.         0.41062271]
 [0.         0.5        0.63214286 0.         0.38682984 0.
  0.5        0.51428571 0.         0.33909091]
 [0.         0.5        0.51428571 0.         0.33909091 0.
  0.5        0.56607143 0.         0.36083916]
 [0.         0.5        0.59107143 0.         0.37109557 0.
  0.5        0.47142857 0.         0.32      ]
 [0.         0.5        0.68571429 0.         0.40622711 0.
  0.5        0.59107143 0.         0.37109557]
 [0.         0.5        0.68571429 0.         0.40622711 0.
  0.5        0.71071429 0.         0.41501832]
 [0.         0.5        0.51428571 0.         0.33909091 0.
  0.5        0.52857143 0.         0.34545455]
 [0.         0.5        0.57857143 0.         0.36596737 0.
  0.5        0.61785714 0.         0.38152681]
 [0.         0.5        0.60357143 0.         0.37622378 0.
  0.5        0.60357143 0.         0.37622378]
 [0.         0.5        0.57857143 0.         0.36596737 0.
  0.5        0.56607143 0.         0.36083916]
 [0.         0.5        0.66071429 0.         0.3974359  0.
  0.5        0.56607143 0.         0.36083916]
 [0.         0.5        0.67321429 0.         0.4018315  0.
  0.5        0.66071429 0.         0.3974359 ]
 [0.         0.5        0.60357143 0.         0.37622378 0.
  0.5        0.67321429 0.         0.4018315 ]
 [0.         0.5        0.57857143 0.         0.36596737 0.
  0.5        0.59107143 0.         0.37109557]
 [0.         0.5        0.83035714 0.         0.45318681 0.
  0.5        0.56607143 0.         0.36083916]
 [0.         0.5        0.68571429 0.         0.40622711 0.
  0.5        0.54107143 0.         0.35058275]
 [0.         0.5        0.67321429 0.         0.4018315  0.
  0.5        0.64642857 0.         0.39213287]
 [0.         0.5        0.76428571 0.         0.43278388 0.
  0.5        0.51428571 0.         0.33909091]
 [0.         0.5        0.51428571 0.         0.33909091 0.
  0.5        0.61785714 0.         0.38152681]
 [0.         0.5        0.57857143 0.         0.36596737 0.
  0.5        0.75       0.         0.4282967 ]
 [0.         0.5        0.54107143 0.         0.35058275 0.
  0.5        0.59107143 0.         0.37109557]
 [0.         0.5        0.56607143 0.         0.36083916 0.
  0.5        0.51428571 0.         0.33909091]
 [0.         0.5        0.55357143 0.         0.35571096 0.
  0.5        0.55357143 0.         0.35571096]
 [0.         0.5        0.69821429 0.         0.41062271 0.
  0.5        0.51428571 0.         0.33909091]
 [0.         0.5        0.63214286 0.         0.38682984 0.
  0.5        0.61785714 0.         0.38152681]
 [0.         0.5        0.60357143 0.         0.37622378 0.
  0.5        0.55357143 0.         0.35571096]
 [0.         0.5        0.61785714 0.         0.38152681 0.
  0.5        0.64642857 0.         0.39213287]]
DUMMY mean:
[0.         0.5        0.61285714 0.         0.37825247 0.
 0.5        0.59654762 0.         0.37196925]
---------------------------
Current folder: C:\Users\Javier\Dropbox\c_sldl_1_2_14
-------------------------------------
----- RESULTS from .csv files ------
-------------------------------------
---------------------------
ALG Means: 
-rows: alg : KNN = 0; DT = 1; RF = 2; SVM = 3; GBM = 4; BDDAE = 5; DUMMY = 5
columns:
'val_cohen','val_uar', 'val_acc', 'val_gm',  'val_f1',  'aro_cohen','aro_uar', 'aro_acc', 'aro_gm',  'aro_f1'
-------------------------------------------------------------
  v_c   v_u   v_a   v_g   v_f1  a_c   a_u   a_a   a_g   a_f1
[[0.293 0.649 0.683 0.563 0.63  0.302 0.65  0.681 0.576 0.636]
 [0.294 0.653 0.672 0.586 0.634 0.296 0.646 0.661 0.596 0.627]
 [0.281 0.651 0.68  0.593 0.629 0.299 0.653 0.681 0.578 0.638]
 [0.003 0.501 0.614 0.006 0.381 0.042 0.521 0.615 0.077 0.41 ]
 [0.299 0.646 0.7   0.516 0.623 0.266 0.628 0.678 0.493 0.603]
 [0.093 0.546 0.587 0.475 0.532 0.185 0.589 0.629 0.518 0.576]
 [0.    0.5   0.613 0.    0.378 0.    0.5   0.597 0.    0.372]]
-------------------------------------------------------------
Standard Deviation of each metric:
[[0.201 0.098 0.099 0.15  0.106 0.175 0.086 0.086 0.127 0.09 ]
 [0.183 0.09  0.093 0.13  0.094 0.15  0.071 0.07  0.1   0.074]
 [0.224 0.099 0.1   0.136 0.106 0.149 0.094 0.081 0.126 0.097]
 [0.014 0.006 0.074 0.023 0.029 0.119 0.059 0.071 0.193 0.09 ]
 [0.198 0.097 0.084 0.215 0.114 0.179 0.092 0.075 0.216 0.109]
 [0.19  0.095 0.101 0.14  0.101 0.191 0.093 0.103 0.136 0.102]
 [0.    0.    0.074 0.    0.027 0.    0.    0.071 0.    0.028]]
-------------------------------------------------------------
std_dev/mean [percentage]:
[[ 69.  15.  14.  27.  17.  58.  13.  13.  22.  14.]
 [ 62.  14.  14.  22.  15.  51.  11.  11.  17.  12.]
 [ 80.  15.  15.  23.  17.  50.  14.  12.  22.  15.]
 [476.   1.  12. 398.   8. 281.  11.  12. 250.  22.]
 [ 66.  15.  12.  42.  18.  67.  15.  11.  44.  18.]
 [204.  17.  17.  29.  19. 103.  16.  16.  26.  18.]
 [  0.   0.  12.   0.   7.   0.   0.  12.   0.   8.]]
-------------------------------------
Current folder: C:\Users\Javier\Dropbox\c_sldl_1_2_14
-------------------------------------
----- RESULTS ------
-------------------------------------
Window size (sec):  16.0
step (sec):  16.0
overlap:  True
perc. of overlap:  0.0
overlap duration (sec):  0.0
Number of windows / instances:  76
Elapsed time: 536.1941657225291 minutes
Elapsed time: 8.936569428708818 hours
