2024-03-15 09:35:45.588508: I tensorflow/core/util/port.cc:113] oneDNN custom operations are on. You may see slightly different numerical results due to floating-point round-off errors from different computation orders. To turn them off, set the environment variable `TF_ENABLE_ONEDNN_OPTS=0`.
2024-03-15 09:35:49.411116: I tensorflow/core/util/port.cc:113] oneDNN custom operations are on. You may see slightly different numerical results due to floating-point round-off errors from different computation orders. To turn them off, set the environment variable `TF_ENABLE_ONEDNN_OPTS=0`.
2024-03-15 09:35:58.761390: I tensorflow/core/platform/cpu_feature_guard.cc:210] This TensorFlow binary is optimized to use available CPU instructions in performance-critical operations.
To enable the following instructions: AVX2 FMA, in other operations, rebuild TensorFlow with the appropriate compiler flags.
    
    
-------------------------------
participant:  1
-------------------------------
    
    
participant:  1
corriendo en PC gamer:
Window size (sec):  11.0
step (sec):  11.0
overlap:  True
perc. of overlap:  0.0
overlap duration (sec):  0.0
Nearest multiple of 16 to 11000 is: 11008
Nearest multiple of 16 to 11000 is: 11008
['gsr_chunks', 'ppg_chunks', 'val_chunks', 'aro_chunks', 'time_chunks', 'tag_chunks', 'video']
C:\Users\Javier\Dropbox\c_sldl_1_2_11\functions.py:880: FutureWarning: ChainedAssignmentError: behaviour will change in pandas 3.0!

[1m1/1[0m [32m━━━━━━━━━━━━━━━━━━━━[0m[37m[0m [1m0s[0m 125ms/step
predicted [0.6329006  0.5956359  0.45148113 0.48213115 0.75738555 0.6870997
 0.3494541  0.5287489  0.59093547 0.24483506 0.269428   0.18115497
 0.1236992  0.39114916 0.3810223  0.57213724 0.7288668  0.7433975
 0.3130197  0.33148646 0.42376068 0.5329754  0.45798615]
predicted [1 1 0 0 1 1 0 1 1 0 0 0 0 0 0 1 1 1 0 0 0 1 0]
expected [ True  True False False  True False  True  True  True False  True False
 False  True False  True  True  True False False  True  True  True]
accuracy: 0.7391304347826086
confusion matrix: 
[[8 1]
 [5 9]]
              precision    recall  f1-score   support

       False       0.62      0.89      0.73         9
        True       0.90      0.64      0.75        14

    accuracy                           0.74        23
   macro avg       0.76      0.77      0.74        23
weighted avg       0.79      0.74      0.74        23

macro avg f1-score: 0.7386363636363636
macro avg (UAR): 0.7658730158730158
Sensitivity:  0.8888888888888888
Specificity:  0.6428571428571429
g-mean:  0.7559289460184544
-------- Model Performance ----------: 
accuracy:  [0.7826087  0.69565217 0.65217391 0.69565217 0.69565217 0.7826087
 0.60869565 0.86956522 0.52173913 0.73913043]
gmean:  [0.71824301 0.66068747 0.66666667 0.69006556 0.69006556 0.66666667
 0.5976143  0.87287156 0.50395263 0.75592895]
f1_score:  [0.75268817 0.67342799 0.65151515 0.68615984 0.68615984 0.73193473
 0.59649123 0.86549708 0.50682261 0.73863636]
UAR:  [0.74206349 0.67063492 0.67460317 0.69047619 0.69047619 0.72222222
 0.59920635 0.87301587 0.50793651 0.76587302]
Cohen Kappa score:  [0.51476793 0.34817814 0.32352941 0.37354086 0.37354086 0.49339207
 0.19455253 0.73151751 0.0155642  0.49264706]
arousal and valece = ok
------------- Evaluating model --------------
-------------------------------------
-------------------------------------
participant:  30
-------------------------------------
----- RESULTS ------
-------------------------------------
Window size (sec):  11.008
step (sec):  11.008
overlap:  True
perc. of overlap:  0.0
overlap duration (sec):  0.0
Number of windows / instances:  111
-rows: alg : KNN = 0; DT = 1; RF = 2; SVM = 3; GBM = 4; BDDAE = 5; DUMMY = 5
columns:
'val_cohen','val_uar', 'val_acc', 'val_gm',  'val_f1',  'aro_cohen','aro_uar', 'aro_acc', 'aro_gm',  'aro_f1'
-------------------------------------------------------------
  v_c   v_u   v_a   v_g   v_f1  a_c   a_u   a_a   a_g   a_f1
[[0.716 0.865 0.864 0.857 0.856 0.374 0.685 0.711 0.663 0.678]
 [0.487 0.744 0.757 0.738 0.737 0.417 0.682 0.722 0.664 0.677]
 [0.596 0.815 0.83  0.814 0.813 0.549 0.735 0.777 0.594 0.734]
 [0.223 0.598 0.675 0.379 0.552 0.    0.5   0.648 0.    0.393]
 [0.552 0.775 0.793 0.764 0.773 0.315 0.675 0.74  0.569 0.666]
 [0.386 0.694 0.704 0.682 0.689 0.046 0.527 0.596 0.388 0.499]
 [0.    0.5   0.604 0.    0.376 0.    0.5   0.648 0.    0.393]]
participant performance loaded
    
    
-------------------------------
LAST participant's saved data: 
30
-------------------------------
    
    
---------------------------
KNN performance:
[[ 4.18041530e-01  7.08333333e-01  7.10606061e-01  6.91728985e-01
   7.01811522e-01  3.53309424e-01  6.77083333e-01  7.92424242e-01
   5.50484600e-01  6.60096626e-01]
 [ 3.58851523e-01  6.83809524e-01  6.84090909e-01  6.70611485e-01
   6.74268509e-01  3.42539618e-01  6.65119048e-01  6.93939394e-01
   6.28211289e-01  6.58594331e-01]
 [ 3.61548638e-01  6.75476190e-01  6.94696970e-01  6.26876094e-01
   6.60856227e-01  5.32007949e-01  7.70000000e-01  7.65909091e-01
   7.58159708e-01  7.61273726e-01]
 [ 4.42247473e-01  7.21666667e-01  7.27272727e-01  7.00384145e-01
   7.14532412e-01 -3.26556924e-04  5.16369048e-01  5.84848485e-01
   3.14399799e-01  4.76505692e-01]
 [ 4.89366074e-01  7.40238095e-01  7.64393939e-01  6.96241845e-01
   7.29645363e-01  5.15560074e-01  7.58333333e-01  7.58333333e-01
   7.43407431e-01  7.51639194e-01]
 [ 4.96717786e-01  7.50000000e-01  7.47727273e-01  7.41818226e-01
   7.44545455e-01  5.96033564e-01  7.95000000e-01  8.01515152e-01
   7.79038367e-01  7.92816905e-01]
 [ 2.92143604e-01  6.46666667e-01  6.65909091e-01  6.00240821e-01
   6.27566323e-01  1.32159440e-01  5.68333333e-01  5.66666667e-01
   5.25541886e-01  5.46008991e-01]
 [ 8.52154454e-01  9.14583333e-01  9.38636364e-01  9.07601062e-01
   9.25378151e-01  6.26631102e-01  8.18214286e-01  8.19696970e-01
   8.08798429e-01  8.09714591e-01]
 [ 2.54553391e-01  6.17857143e-01  7.20454545e-01  4.48595660e-01
   6.02272409e-01  3.24170717e-01  6.53571429e-01  7.47727273e-01
   5.29056286e-01  6.45430247e-01]
 [ 3.27023476e-01  6.65000000e-01  6.65909091e-01  6.31353244e-01
   6.48696026e-01  1.09646504e-01  5.55000000e-01  5.59848485e-01
   5.29625137e-01  5.44280997e-01]
 [ 2.24533157e-01  6.12261905e-01  6.47727273e-01  5.36065554e-01
   5.96610195e-01  2.64007794e-01  6.26071429e-01  6.67424242e-01
   5.56302586e-01  6.18679074e-01]
 [ 5.94546113e-01  7.91309524e-01  8.18939394e-01  7.74856460e-01
   7.94682540e-01  5.06313639e-01  7.50000000e-01  7.84090909e-01
   6.79505899e-01  7.36746032e-01]
 [ 3.82048239e-01  6.89642857e-01  7.02272727e-01  6.82750349e-01
   6.89579032e-01  1.32547488e-01  5.65357143e-01  5.75000000e-01
   5.42036421e-01  5.56487124e-01]
 [ 1.84591171e-01  5.91904762e-01  6.20454545e-01  5.33327713e-01
   5.80385309e-01  3.31219433e-01  6.65000000e-01  6.67424242e-01
   6.42225800e-01  6.55427350e-01]
 [ 2.38718385e-01  6.12797619e-01  6.65909091e-01  5.69035385e-01
   6.06624650e-01  1.96981298e-01  5.98214286e-01  6.20454545e-01
   5.51770637e-01  5.88497482e-01]
 [ 2.37174534e-01  6.18928571e-01  6.46212121e-01  5.92097531e-01
   6.13867521e-01  2.48577559e-01  6.23511905e-01  7.05303030e-01
   4.80146567e-01  6.11223156e-01]
 [ 3.68078510e-01  6.85595238e-01  7.01515152e-01  6.60650496e-01
   6.76426906e-01  1.91159714e-01  5.94761905e-01  6.39393939e-01
   5.11774243e-01  5.80068681e-01]
 [-7.42000802e-02  4.62777778e-01  7.75000000e-01  0.00000000e+00
   4.35256524e-01  3.97036597e-01  7.03333333e-01  7.03030303e-01
   6.89053183e-01  6.92150350e-01]
 [ 1.51650031e-01  5.72916667e-01  6.95454545e-01  3.52539340e-01
   5.43834775e-01  4.37624614e-01  7.18333333e-01  7.21212121e-01
   6.98846758e-01  7.11599512e-01]
 [ 2.47638948e-01  6.23214286e-01  6.76515152e-01  5.56593409e-01
   6.15408317e-01  2.05655600e-01  6.04523810e-01  6.40909091e-01
   5.26543373e-01  5.86818843e-01]
 [ 1.41178595e-02  5.13888889e-01  7.11363636e-01  1.83033796e-01
   4.77258588e-01 -1.05297520e-01  4.48333333e-01  4.51515152e-01
   3.87568656e-01  4.27789988e-01]
 [ 3.15901554e-01  6.58333333e-01  6.57575758e-01  6.22891989e-01
   6.40584416e-01  2.19431464e-01  6.06547619e-01  6.75000000e-01
   5.20838620e-01  5.98279645e-01]
 [ 8.99914086e-02  5.42857143e-01  5.85606061e-01  4.34724408e-01
   5.24033573e-01  3.73969356e-01  6.60416667e-01  7.92424242e-01
   5.61498566e-01  6.74065187e-01]
 [-1.28026048e-02  4.93333333e-01  4.95454545e-01  4.59700025e-01
   4.77374570e-01  4.32320480e-01  7.13928571e-01  7.29545455e-01
   6.88423953e-01  7.08556868e-01]
 [ 2.77054461e-01  6.47619048e-01  6.40909091e-01  6.27238173e-01
   6.28985736e-01  4.97229787e-01  7.50000000e-01  7.48484848e-01
   7.27624633e-01  7.38548119e-01]
 [ 3.06143052e-01  6.50000000e-01  6.65151515e-01  6.10029685e-01
   6.38719336e-01  3.69115856e-01  6.83690476e-01  6.93939394e-01
   6.59185328e-01  6.75201188e-01]
 [ 3.52123372e-01  6.75595238e-01  7.37121212e-01  6.04411085e-01
   6.65397993e-01  4.76532115e-01  7.36666667e-01  7.40151515e-01
   7.24296468e-01  7.33383283e-01]
 [ 6.02404452e-02  5.24702381e-01  6.01515152e-01  4.02813154e-01
   5.09860425e-01  4.09435001e-01  6.97738095e-01  7.30303030e-01
   6.79442294e-01  7.02274115e-01]
 [-5.76974787e-02  4.75357143e-01  5.40909091e-01  2.86556093e-01
   4.41504435e-01  3.01821863e-01  6.49523810e-01  6.49242424e-01
   6.28414397e-01  6.38722111e-01]
 [ 7.15839361e-01  8.65000000e-01  8.64393939e-01  8.56628195e-01
   8.55602592e-01  3.74436653e-01  6.85119048e-01  7.11363636e-01
   6.63122319e-01  6.77837864e-01]]
KNN mean:
[0.29694461 0.64772222 0.69232323 0.56871315 0.63471899 0.32639502
 0.66193651 0.69123737 0.60951145 0.65195724]
---------------------------
---------------------------
DT performance:
[[ 4.71013157e-01  7.10000000e-01  7.12121212e-01  6.74399276e-01
   7.01740759e-01  2.66535221e-01  6.25000000e-01  7.28787879e-01
   4.50828315e-01  6.03200587e-01]
 [ 2.71605747e-01  6.79761905e-01  6.83333333e-01  6.36203378e-01
   6.64165002e-01  4.43414487e-01  6.93452381e-01  7.21212121e-01
   6.44530228e-01  6.78772894e-01]
 [ 3.41885553e-01  6.48333333e-01  6.47727273e-01  6.87636032e-01
   6.37624875e-01  4.00252652e-01  7.23333333e-01  7.19696970e-01
   6.87436948e-01  7.18008658e-01]
 [ 2.56909653e-01  6.03333333e-01  6.04545455e-01  5.22607564e-01
   5.83359141e-01  3.25472796e-01  6.78869048e-01  6.84090909e-01
   6.37671501e-01  6.43333333e-01]
 [ 3.71954906e-01  7.02380952e-01  7.18939394e-01  6.46311564e-01
   6.87698135e-01  5.34866005e-01  7.63333333e-01  7.66666667e-01
   7.69615243e-01  7.60387668e-01]
 [ 3.31153229e-01  6.23333333e-01  6.19696970e-01  6.13092396e-01
   6.11322566e-01  5.15108283e-01  7.75000000e-01  7.75000000e-01
   7.71342579e-01  7.50898962e-01]
 [ 3.28204807e-01  6.65476190e-01  6.75000000e-01  6.09860363e-01
   6.48638592e-01  2.40469678e-01  5.81666667e-01  5.84090909e-01
   5.49909002e-01  5.74575980e-01]
 [ 6.94382262e-01  8.20238095e-01  8.31060606e-01  8.37813202e-01
   8.08838523e-01  4.93842354e-01  7.45119048e-01  7.46969697e-01
   7.44053617e-01  7.37718254e-01]
 [ 3.31594844e-01  6.26785714e-01  6.94696970e-01  5.21541304e-01
   6.20524541e-01  1.29413147e-01  6.05654762e-01  6.57575758e-01
   5.28578777e-01  5.90114469e-01]
 [ 2.98620300e-01  6.01666667e-01  6.02272727e-01  5.83628238e-01
   5.93705461e-01  1.72418647e-01  6.06666667e-01  6.04545455e-01
   5.61074046e-01  5.83870574e-01]
 [ 7.88334967e-02  5.50238095e-01  5.65909091e-01  5.13272559e-01
   5.37247197e-01  3.29532584e-01  6.84761905e-01  7.02272727e-01
   6.32947619e-01  6.77936647e-01]
 [ 5.02250314e-01  7.34285714e-01  7.47727273e-01  7.42369772e-01
   7.30669331e-01  2.97605370e-01  6.81904762e-01  6.85606061e-01
   6.13623465e-01  6.63197048e-01]
 [ 3.17445096e-01  6.42023810e-01  6.46969697e-01  6.35478174e-01
   6.33407148e-01  1.50983101e-01  5.27023810e-01  5.30303030e-01
   5.13489673e-01  5.14618992e-01]
 [ 1.81491616e-02  5.23571429e-01  5.39393939e-01  4.82359895e-01
   5.15808913e-01  3.68510238e-01  6.98333333e-01  7.03030303e-01
   6.39997702e-01  6.90605783e-01]
 [ 1.76822903e-01  5.53273810e-01  5.93181818e-01  5.60701376e-01
   5.48735994e-01  2.39774507e-01  5.98214286e-01  6.40151515e-01
   5.69323743e-01  5.89360052e-01]
 [ 1.91777766e-01  5.95952381e-01  6.03030303e-01  5.06955649e-01
   5.78611111e-01  5.03417456e-01  7.32440476e-01  7.65151515e-01
   7.32142292e-01  7.27009804e-01]
 [ 4.52126743e-01  7.40714286e-01  7.55303030e-01  7.49396595e-01
   7.27766400e-01  4.45237978e-01  7.49880952e-01  7.64393939e-01
   7.47897477e-01  7.51804862e-01]
 [ 3.99521073e-02  5.60555556e-01  7.66666667e-01  2.28201663e-01
   5.30073099e-01  4.07387139e-01  6.77857143e-01  6.84090909e-01
   6.52072499e-01  6.55115962e-01]
 [ 2.63890299e-01  6.31845238e-01  6.76515152e-01  5.92088474e-01
   6.23586332e-01  4.47619375e-01  7.60000000e-01  7.65151515e-01
   6.94755386e-01  7.49814352e-01]
 [ 3.12500807e-01  6.62202381e-01  6.84848485e-01  6.17052555e-01
   6.54940386e-01  2.29506649e-01  6.63214286e-01  6.85606061e-01
   6.03482206e-01  6.40172295e-01]
 [ 6.70227955e-02  5.06250000e-01  5.91666667e-01  5.06278277e-01
   4.83818001e-01  1.35015912e-02  4.75000000e-01  4.68181818e-01
   4.42870242e-01  4.49753857e-01]
 [ 2.22276598e-01  5.81666667e-01  5.86363636e-01  5.70484856e-01
   5.62944833e-01  2.30079949e-01  5.98809524e-01  6.31060606e-01
   5.27957859e-01  5.81636142e-01]
 [ 1.06782398e-01  5.28214286e-01  5.49242424e-01  5.34977545e-01
   5.18258547e-01  3.07443585e-01  6.50000000e-01  7.12121212e-01
   6.00561900e-01  6.28771930e-01]
 [ 1.98173651e-01  5.60000000e-01  5.66666667e-01  5.81991865e-01
   5.45664613e-01  3.59305465e-01  6.74761905e-01  6.66666667e-01
   6.00750897e-01  6.61103341e-01]
 [ 1.63979601e-01  6.06428571e-01  6.11363636e-01  5.64699902e-01
   5.92624320e-01  4.28668800e-01  7.10000000e-01  7.09848485e-01
   6.98749050e-01  7.02784715e-01]
 [ 2.53577077e-01  6.23333333e-01  6.28030303e-01  5.59170626e-01
   6.17866300e-01  2.76299692e-01  6.38452381e-01  6.43181818e-01
   6.01391249e-01  6.30251693e-01]
 [ 3.48731455e-01  6.90476190e-01  7.37878788e-01  6.19941827e-01
   6.84296218e-01  3.93599996e-01  6.53333333e-01  6.47727273e-01
   6.42676284e-01  6.39272949e-01]
 [ 7.80245778e-04  4.53273810e-01  4.96212121e-01  4.59407899e-01
   4.38323547e-01  5.56335012e-01  8.05357143e-01  8.10606061e-01
   7.55858846e-01  7.98320846e-01]
 [-1.20983672e-01  4.50357143e-01  4.96212121e-01  4.42755554e-01
   4.28394449e-01 -3.89727112e-03  4.82142857e-01  4.96212121e-01
   4.58093241e-01  4.61831363e-01]
 [ 4.86525765e-01  7.43571429e-01  7.56818182e-01  7.38446943e-01
   7.36872164e-01  4.16845981e-01  6.81845238e-01  7.21969697e-01
   6.63599165e-01  6.76712993e-01]]
DT mean:
[0.25926464 0.62065146 0.64631313 0.58463751 0.60825088 0.33065168
 0.66471429 0.68073232 0.62457603 0.6510319 ]
---------------------------
---------------------------
RF performance:
[[ 0.56444735  0.77        0.76590909  0.76327219  0.75728494  0.29413848
   0.64513889  0.7469697   0.54662377  0.6243695 ]
 [ 0.37529989  0.65238095  0.66515152  0.67327469  0.64587024  0.48773947
   0.78666667  0.78484848  0.7286075   0.77514042]
 [ 0.37985047  0.65345238  0.66666667  0.64034626  0.64752206  0.37879749
   0.71166667  0.71212121  0.73606809  0.70652597]
 [ 0.33775354  0.69        0.69545455  0.58935122  0.68155511  0.16010123
   0.6485119   0.68636364  0.48454256  0.61047619]
 [ 0.39457554  0.68619048  0.71060606  0.68727643  0.6586713   0.58496532
   0.71333333  0.71287879  0.69888546  0.70117383]
 [ 0.38707093  0.74166667  0.73712121  0.69212     0.73256799  0.49435906
   0.72333333  0.72954545  0.67970074  0.71477855]
 [ 0.32629189  0.67714286  0.69242424  0.56751963  0.66300699  0.127875
   0.60333333  0.60454545  0.57438167  0.59762349]
 [ 0.84198113  0.91071429  0.91212121  0.92910678  0.90357143  0.49871388
   0.78440476  0.79166667  0.71999232  0.77999237]
 [ 0.35317293  0.61964286  0.69545455  0.55851475  0.59446754  0.12063291
   0.57857143  0.65        0.54416981  0.57099916]
 [ 0.22025416  0.64333333  0.64772727  0.6070693   0.63415862  0.27509603
   0.65833333  0.65833333  0.57708226  0.64817294]
 [ 0.25082705  0.56333333  0.6030303   0.51086912  0.55354243  0.44498832
   0.69738095  0.72045455  0.65229744  0.69451286]
 [ 0.60210142  0.77238095  0.79242424  0.7876951   0.77220849  0.39591158
   0.695       0.71287879  0.60265066  0.67827336]
 [ 0.2644875   0.65083333  0.66515152  0.70912414  0.64682262  0.2418556
   0.59321429  0.61136364  0.49509966  0.58865483]
 [ 0.13500048  0.63404762  0.65833333  0.53710185  0.63139971  0.36577743
   0.66833333  0.66666667  0.68036708  0.66102925]
 [ 0.35774763  0.66130952  0.71136364  0.56613211  0.66256383  0.28404684
   0.73303571  0.75757576  0.68345797  0.72956197]
 [ 0.09515694  0.60095238  0.63106061  0.57271143  0.5929268   0.4647364
   0.7202381   0.76515152  0.56461295  0.70266998]
 [ 0.64095407  0.84130952  0.84621212  0.78937431  0.83520424  0.56854254
   0.75440476  0.76439394  0.76519431  0.74663309]
 [ 0.11883142  0.64888889  0.8469697   0.28513701  0.63935673  0.41919061
   0.6722619   0.69318182  0.68358552  0.66229674]
 [ 0.39614473  0.66904762  0.72272727  0.47775237  0.65966036  0.50187148
   0.76333333  0.76742424  0.74893198  0.76121129]
 [ 0.38135374  0.66220238  0.70151515  0.673795    0.66091844  0.11753681
   0.52583333  0.55984848  0.54983586  0.51902446]
 [ 0.12949875  0.50972222  0.70227273  0.22810833  0.47062718 -0.00649079
   0.46833333  0.46060606  0.53410529  0.45173576]
 [ 0.36657497  0.63166667  0.62954545  0.67118213  0.62273449  0.27505135
   0.64404762  0.71060606  0.57152917  0.6317878 ]
 [ 0.20063474  0.61154762  0.63939394  0.53031181  0.60657178  0.25223705
   0.65694444  0.78333333  0.54270443  0.65562208]
 [ 0.12662996  0.60166667  0.6030303   0.45711591  0.59137057  0.35414279
   0.68083333  0.68409091  0.6345075   0.67090868]
 [ 0.24502028  0.64630952  0.66666667  0.60451454  0.63840327  0.45441257
   0.755       0.75606061  0.76997469  0.74381702]
 [ 0.25359446  0.6         0.61060606  0.55987673  0.58732323  0.33556721
   0.67309524  0.67575758  0.71571851  0.6644339 ]
 [ 0.42775417  0.67916667  0.72727273  0.70349563  0.67148926  0.38648421
   0.73833333  0.73787879  0.79336092  0.73447719]
 [ 0.11637352  0.5125      0.56666667  0.48535823  0.49573565  0.34311272
   0.68880952  0.70454545  0.68208051  0.68411297]
 [-0.00937009  0.55321429  0.60530303  0.43860939  0.53636204  0.08879621
   0.59892857  0.61363636  0.56294623  0.58982477]
 [ 0.59641197  0.81452381  0.82954545  0.81365033  0.81335942  0.54883728
   0.73541667  0.77651515  0.59415648  0.73419773]]
RF mean:
[0.32921419 0.66363823 0.69825758 0.60365889 0.65357523 0.34196757
 0.67720238 0.69997475 0.63723905 0.66780127]
---------------------------
---------------------------
SVM performance:
[[ 0.17642673  0.58666667  0.57651515  0.3897811   0.50930386  0.
   0.5         0.75681818  0.          0.43048872]
 [ 0.08706897  0.54166667  0.60378788  0.16690239  0.44044271  0.012
   0.50535714  0.61287879  0.046291    0.39493034]
 [ 0.362244    0.6675      0.71136364  0.57110252  0.64479342  0.30097404
   0.65166667  0.64772727  0.63356458  0.64034466]
 [-0.03508772  0.48333333  0.52272727  0.          0.34235294  0.
   0.5         0.69393939  0.          0.40929825]
 [ 0.46221084  0.72071429  0.76363636  0.6462282   0.70558428  0.5166456
   0.75833333  0.75909091  0.73559056  0.74904595]
 [ 0.16951228  0.58666667  0.57651515  0.48146794  0.53736774  0.50611068
   0.75        0.75757576  0.73065766  0.74622738]
 [ 0.          0.5         0.60378788  0.          0.37605779  0.02736518
   0.51333333  0.52272727  0.21303283  0.40953467]
 [ 0.46428756  0.70833333  0.80378788  0.61325792  0.71639276  0.04178723
   0.51785714  0.61287879  0.096291    0.41362315]
 [ 0.          0.5         0.68484848  0.          0.40608187  0.
   0.5         0.69393939  0.          0.40929825]
 [ 0.06144508  0.53        0.54090909  0.22613141  0.42546919 -0.03883929
   0.48166667  0.51363636  0.03651484  0.34866947]
 [ 0.          0.5         0.60378788  0.          0.37605779  0.
   0.5         0.60378788  0.          0.37605779]
 [ 0.02978723  0.5125      0.6219697   0.05        0.40194014  0.
   0.5         0.6219697   0.          0.38324733]
 [ 0.          0.5         0.58560606  0.          0.36886825  0.
   0.5         0.56742424  0.          0.36167871]
 [ 0.          0.5         0.61287879  0.          0.37965256  0.27008037
   0.63        0.64848485  0.46390249  0.5749965 ]
 [ 0.          0.5         0.66666667  0.          0.39964912  0.
   0.5         0.63939394  0.          0.39      ]
 [ 0.          0.5         0.60378788  0.          0.37605779  0.
   0.5         0.66666667  0.          0.39964912]
 [ 0.          0.5         0.59469697  0.          0.37246302  0.
   0.5         0.60378788  0.          0.37605779]
 [ 0.          0.5         0.83787879  0.          0.45569264  0.
   0.5         0.57651515  0.          0.36527348]
 [ 0.          0.5         0.7030303   0.          0.41251462  0.
   0.5         0.54090909  0.          0.35098039]
 [ 0.          0.5         0.65757576  0.          0.39643275  0.
   0.5         0.6219697   0.          0.38324733]
 [ 0.          0.5         0.76590909  0.          0.43338346 -0.00460795
   0.49833333  0.47727273  0.23706636  0.39931624]
 [ 0.16268735  0.585       0.55833333  0.35663639  0.49150627  0.
   0.5         0.65757576  0.          0.39643275]
 [ 0.          0.5         0.59469697  0.          0.37246302  0.
   0.5         0.73863636  0.          0.42469925]
 [ 0.          0.5         0.53181818  0.          0.34693627  0.06543779
   0.53        0.59393939  0.13416408  0.41813725]
 [ 0.          0.5         0.58560606  0.          0.36886825  0.38666585
   0.7         0.68409091  0.66443287  0.67428405]
 [ 0.          0.5         0.54090909  0.          0.35098039  0.18621521
   0.58583333  0.63030303  0.36229496  0.52108202]
 [ 0.          0.5         0.69393939  0.          0.40929825  0.44881173
   0.72        0.73030303  0.68707121  0.71144245]
 [ 0.          0.5         0.66666667  0.          0.39964912  0.
   0.5         0.61287879  0.          0.37965256]
 [ 0.          0.5         0.6219697   0.          0.38324733  0.
   0.5         0.55833333  0.          0.35808394]
 [ 0.22330623  0.59785714  0.675       0.37867759  0.55158613  0.
   0.5         0.64848485  0.          0.39321637]]
SVM mean:
[0.07212962 0.53400794 0.6370202  0.12933952 0.43836979 0.09062155
 0.54474603 0.63313131 0.16802915 0.45296654]
---------------------------
---------------------------
GBM performance:
[[ 0.61841448  0.80833333  0.81060606  0.79513709  0.8050494   0.19855654
   0.58333333  0.79318182  0.22307101  0.54684579]
 [ 0.34346567  0.6552381   0.675       0.62120894  0.64905137  0.44814486
   0.72535714  0.75833333  0.6869583   0.72062244]
 [ 0.40896778  0.68809524  0.71212121  0.64895883  0.68244963  0.3748814
   0.68        0.68333333  0.65018071  0.67439061]
 [ 0.22217335  0.61        0.62121212  0.49911417  0.56818789  0.00288304
   0.50238095  0.66590909  0.14626389  0.44955575]
 [ 0.4857125   0.73404762  0.77348485  0.67670337  0.72491192  0.54611761
   0.77        0.775       0.73823619  0.76262654]
 [ 0.41248734  0.70833333  0.70151515  0.68650795  0.69346875  0.42683769
   0.76666667  0.775       0.66614687  0.75341728]
 [ 0.37139212  0.67964286  0.70984848  0.6144406   0.66874265  0.25651385
   0.63666667  0.64015152  0.66151365  0.63337551]
 [ 0.79365723  0.88958333  0.91212121  0.88152926  0.89571429  0.40556183
   0.71154762  0.73787879  0.65804179  0.70756396]
 [ 0.30364444  0.62321429  0.73030303  0.49320394  0.60480134 -0.01538462
   0.4875      0.67651515  0.          0.40292398]
 [ 0.15763024  0.57        0.57424242  0.52788294  0.55623821  0.35132191
   0.67666667  0.67651515  0.66376607  0.66960317]
 [ 0.18035175  0.59130952  0.64848485  0.39987438  0.54904995  0.42402141
   0.70178571  0.73863636  0.68732742  0.70226137]
 [ 0.48892957  0.71880952  0.76515152  0.68019806  0.72177171  0.32892273
   0.6777381   0.71363636  0.61311028  0.67262821]
 [ 0.33826268  0.64309524  0.67348485  0.62044261  0.63551713  0.12144805
   0.55940476  0.58333333  0.48024278  0.55190351]
 [ 0.12018431  0.56285714  0.62954545  0.40213114  0.5302486   0.341008
   0.65833333  0.66666667  0.65233489  0.64175366]
 [ 0.13438283  0.56696429  0.68560606  0.29894852  0.52604962  0.20436199
   0.59553571  0.68484848  0.46778649  0.579581  ]
 [-0.02696235  0.48190476  0.57651515  0.08554619  0.39242684  0.26351686
   0.62559524  0.73030303  0.43320329  0.59802465]
 [ 0.5756526   0.80297619  0.81893939  0.77138433  0.79740607  0.38856086
   0.66952381  0.71212121  0.64699593  0.66899977]
 [ 0.0862069   0.49444444  0.82878788  0.          0.4527979   0.33612772
   0.64297619  0.65757576  0.62160231  0.62176129]
 [ 0.17999021  0.57916667  0.73939394  0.26410154  0.53885664  0.35995652
   0.695       0.71136364  0.60011724  0.67692332]
 [ 0.46154542  0.71220238  0.77424242  0.67581751  0.72036747  0.12129954
   0.54107143  0.61363636  0.35343258  0.50305205]
 [ 0.          0.5         0.76590909  0.          0.43338346  0.01837084
   0.51666667  0.51287879  0.46177887  0.49988595]
 [ 0.29554479  0.665       0.66742424  0.64467591  0.65612915  0.25025265
   0.61755952  0.70227273  0.44746369  0.59495073]
 [ 0.02623396  0.51297619  0.57727273  0.30021808  0.46862027  0.04890351
   0.525       0.72954545  0.13411129  0.47736738]
 [-0.13089239  0.45333333  0.45984848  0.42366092  0.44580836  0.52769474
   0.7427381   0.75530303  0.73106567  0.74143717]
 [ 0.30701206  0.63202381  0.67424242  0.54924484  0.60541667  0.45392771
   0.73        0.7280303   0.71155536  0.71905261]
 [ 0.21236929  0.60333333  0.61060606  0.54765361  0.58705461  0.33025741
   0.65285714  0.67651515  0.58843645  0.63315912]
 [ 0.38657857  0.67619048  0.77348485  0.57555031  0.67396125  0.5140965
   0.74166667  0.73863636  0.73685507  0.73298701]
 [-0.04795177  0.48571429  0.63030303  0.1         0.42379085  0.46036883
   0.71880952  0.75757576  0.67090748  0.71589703]
 [ 0.11431344  0.55214286  0.64015152  0.29405198  0.50333837  0.04670703
   0.53261905  0.54924242  0.4548639   0.5165404 ]
 [ 0.55249427  0.77452381  0.79318182  0.76449128  0.77251347  0.31476811
   0.675       0.74015152  0.56923938  0.666447  ]]
GBM mean:
[0.27905971 0.63251521 0.69843434 0.49475594 0.60943746 0.29500017
 0.64533333 0.69613636 0.53855363 0.62785128]
---------------------------
---------------------------
BDDAE performance:
[[-3.12122644e-03  4.98863636e-01  5.00000000e-01  4.87096066e-01
   4.93560412e-01  1.22640763e-01  5.50490196e-01  7.26086957e-01
   3.35307809e-01  5.36973548e-01]
 [ 1.26538728e-01  5.63846154e-01  5.69565217e-01  5.48720823e-01
   5.56970349e-01  4.87084843e-01  7.40079365e-01  7.60869565e-01
   7.26961050e-01  7.40828107e-01]
 [ 1.20311736e-01  5.59230769e-01  5.69565217e-01  5.40039557e-01
   5.53065754e-01 -5.30420318e-02  4.73484848e-01  4.78260870e-01
   4.49691240e-01  4.64260421e-01]
 [-2.85114962e-02  4.85606061e-01  4.91304348e-01  3.81628575e-01
   4.47113928e-01  5.10013886e-02  5.23660714e-01  6.78260870e-01
   2.03645237e-01  4.74899205e-01]
 [ 2.77455751e-01  6.46031746e-01  6.39130435e-01  6.30997952e-01
   6.28270048e-01  2.93443991e-01  6.48484848e-01  6.43478261e-01
   6.29332393e-01  6.36662387e-01]
 [ 6.07141349e-01  8.03409091e-01  8.04347826e-01  7.92767556e-01
   7.99775729e-01  1.43908659e-02  5.07575758e-01  5.08695652e-01
   4.77359429e-01  4.93770931e-01]
 [-7.27297370e-02  4.67063492e-01  5.13043478e-01  3.77843173e-01
   4.52118203e-01  9.83853483e-02  5.49242424e-01  5.47826087e-01
   5.16313131e-01  5.32493095e-01]
 [ 3.04805426e-01  6.37500000e-01  7.30434783e-01  5.76899828e-01
   6.42342143e-01 -1.08352632e-01  4.49603175e-01  5.08695652e-01
   2.91221127e-01  4.24148956e-01]
 [ 2.48131353e-01  6.04464286e-01  7.34782609e-01  4.67773600e-01
   5.99958830e-01  4.15047316e-01  6.75446429e-01  8.00000000e-01
   5.75598065e-01  6.85929855e-01]
 [ 5.43156251e-02  5.26893939e-01  5.26086957e-01  5.01851850e-01
   5.14385389e-01  1.22364633e-01  5.60606061e-01  5.69565217e-01
   5.01961408e-01  5.38127078e-01]
 [ 1.88717410e-01  5.90873016e-01  6.13043478e-01  5.70861686e-01
   5.86984598e-01 -3.23576173e-04  4.99206349e-01  5.52173913e-01
   3.98004128e-01  4.79868068e-01]
 [ 8.29218797e-02  5.40873016e-01  5.73913043e-01  4.97648415e-01
   5.30178471e-01  2.37177685e-01  6.25396825e-01  6.26086957e-01
   6.16168540e-01  6.14196657e-01]
 [ 1.31033308e-01  5.64615385e-01  5.78260870e-01  5.40397014e-01
   5.57658918e-01  3.40185523e-01  6.76153846e-01  6.65217391e-01
   6.65701173e-01  6.62835563e-01]
 [ 1.69100038e-01  5.83333333e-01  6.08695652e-01  5.69506658e-01
   5.83453552e-01  2.47738343e-01  6.23106061e-01  6.26086957e-01
   6.14509627e-01  6.20535531e-01]
 [-4.65519876e-02  4.75000000e-01  5.73913043e-01  2.96925744e-01
   4.46667520e-01  1.75448592e-01  5.93333333e-01  6.21739130e-01
   5.60199339e-01  5.78611678e-01]
 [-1.68205606e-03  5.01190476e-01  5.30434783e-01  4.51184233e-01
   4.87227445e-01  1.58338946e-01  5.65416667e-01  6.95652174e-01
   3.00582154e-01  5.14537463e-01]
 [ 4.59481166e-01  7.27380952e-01  7.47826087e-01  7.08972086e-01
   7.24958279e-01  9.14349870e-02  5.40873016e-01  6.17391304e-01
   3.60091970e-01  5.02252407e-01]
 [ 1.04924429e-01  5.57236842e-01  7.73913043e-01  3.33668346e-01
   5.41143444e-01  7.99596008e-02  5.38461538e-01  5.56521739e-01
   4.89829648e-01  5.22951003e-01]
 [ 2.85142413e-01  6.35267857e-01  7.21739130e-01  5.78372994e-01
   6.35621290e-01  2.07679105e-01  6.03787879e-01  6.04347826e-01
   5.92724853e-01  5.98527556e-01]
 [ 1.82244821e-01  5.82500000e-01  6.60869565e-01  5.09095403e-01
   5.77521381e-01  4.12991245e-02  5.20238095e-01  5.82608696e-01
   3.67826397e-01  4.88405928e-01]
 [-5.12370189e-02  4.78333333e-01  7.26086957e-01  8.55461886e-02
   4.47121847e-01  1.79493131e-01  5.89772727e-01  5.91304348e-01
   5.81498857e-01  5.86425464e-01]
 [-4.35229034e-04  5.00000000e-01  5.04347826e-01  4.67295157e-01
   4.86343545e-01  8.91339537e-02  5.42083333e-01  6.04347826e-01
   4.88272332e-01  5.36514493e-01]
 [ 2.46430208e-01  6.22619048e-01  6.34782609e-01  6.11439823e-01
   6.17999624e-01  4.51433163e-01  6.85784314e-01  8.30434783e-01
   6.04573062e-01  7.12251627e-01]
 [ 7.16744142e-02  5.35984848e-01  5.34782609e-01  5.29878741e-01
   5.32118338e-01  2.85556784e-01  6.39615385e-01  6.56521739e-01
   6.21559084e-01  6.38240855e-01]
 [ 1.20039483e-01  5.58461538e-01  5.73913043e-01  5.23883402e-01
   5.47770060e-01 -9.71048824e-02  4.51515152e-01  4.52173913e-01
   4.45784659e-01  4.48948776e-01]
 [ 1.97485223e-01  5.97348485e-01  6.04347826e-01  5.66561934e-01
   5.86360118e-01  2.21462838e-01  6.09615385e-01  6.17391304e-01
   6.03320011e-01  6.08698835e-01]
 [ 3.77428953e-01  6.85267857e-01  7.52173913e-01  6.40554325e-01
   6.81720576e-01  4.78897605e-01  7.36742424e-01  7.43478261e-01
   7.13512844e-01  7.30525415e-01]
 [-4.89901428e-02  4.73333333e-01  5.26086957e-01  4.20723970e-01
   4.65569266e-01  3.31183023e-01  6.58333333e-01  7.00000000e-01
   6.12875409e-01  6.54499301e-01]
 [ 1.53755534e-01  5.77380952e-01  5.86956522e-01  5.63847421e-01
   5.69493491e-01  4.11186133e-01  7.01538462e-01  7.17391304e-01
   6.83926133e-01  7.00569212e-01]
 [ 3.86123056e-01  6.93650794e-01  7.04347826e-01  6.82276237e-01
   6.88933302e-01  4.58850091e-02  5.26666667e-01  5.95652174e-01
   3.87810882e-01  4.98823829e-01]]
BDDAE mean:
[0.15473145 0.57578534 0.62028986 0.51514196 0.5660802  0.18063432
 0.58687715 0.62927536 0.51387207 0.57421044]
---------------------------
---------------------------
DUMMY performance:
[[0.         0.5        0.45909091 0.         0.31458333 0.
  0.5        0.75681818 0.         0.43048872]
 [0.         0.5        0.56742424 0.         0.36167871 0.
  0.5        0.61287879 0.         0.37965256]
 [0.         0.5        0.56742424 0.         0.36167871 0.
  0.5        0.51363636 0.         0.33884804]
 [0.         0.5        0.54090909 0.         0.35098039 0.
  0.5        0.69393939 0.         0.40929825]
 [0.         0.5        0.59469697 0.         0.37246302 0.
  0.5        0.50454545 0.         0.33480392]
 [0.         0.5        0.45909091 0.         0.31458333 0.
  0.5        0.54090909 0.         0.35098039]
 [0.         0.5        0.60378788 0.         0.37605779 0.
  0.5        0.51363636 0.         0.33884804]
 [0.         0.5        0.67575758 0.         0.4028655  0.
  0.5        0.60378788 0.         0.37605779]
 [0.         0.5        0.68484848 0.         0.40608187 0.
  0.5        0.69393939 0.         0.40929825]
 [0.         0.5        0.51363636 0.         0.33884804 0.
  0.5        0.53181818 0.         0.34693627]
 [0.         0.5        0.60378788 0.         0.37605779 0.
  0.5        0.60378788 0.         0.37605779]
 [0.         0.5        0.61287879 0.         0.37965256 0.
  0.5        0.6219697  0.         0.38324733]
 [0.         0.5        0.58560606 0.         0.36886825 0.
  0.5        0.56742424 0.         0.36167871]
 [0.         0.5        0.61287879 0.         0.37965256 0.
  0.5        0.53181818 0.         0.34693627]
 [0.         0.5        0.66666667 0.         0.39964912 0.
  0.5        0.63939394 0.         0.39      ]
 [0.         0.5        0.60378788 0.         0.37605779 0.
  0.5        0.66666667 0.         0.39964912]
 [0.         0.5        0.59469697 0.         0.37246302 0.
  0.5        0.60378788 0.         0.37605779]
 [0.         0.5        0.83787879 0.         0.45569264 0.
  0.5        0.57651515 0.         0.36527348]
 [0.         0.5        0.7030303  0.         0.41251462 0.
  0.5        0.54090909 0.         0.35098039]
 [0.         0.5        0.65757576 0.         0.39643275 0.
  0.5        0.6219697  0.         0.38324733]
 [0.         0.5        0.76590909 0.         0.43338346 0.
  0.5        0.50454545 0.         0.33480392]
 [0.         0.5        0.50454545 0.         0.33480392 0.
  0.5        0.65757576 0.         0.39643275]
 [0.         0.5        0.59469697 0.         0.37246302 0.
  0.5        0.73863636 0.         0.42469925]
 [0.         0.5        0.53181818 0.         0.34693627 0.
  0.5        0.56742424 0.         0.36167871]
 [0.         0.5        0.58560606 0.         0.36886825 0.
  0.5        0.50454545 0.         0.33480392]
 [0.         0.5        0.54090909 0.         0.35098039 0.
  0.5        0.55833333 0.         0.35808394]
 [0.         0.5        0.69393939 0.         0.40929825 0.
  0.5        0.52272727 0.         0.34289216]
 [0.         0.5        0.66666667 0.         0.39964912 0.
  0.5        0.61287879 0.         0.37965256]
 [0.         0.5        0.6219697  0.         0.38324733 0.
  0.5        0.55833333 0.         0.35808394]
 [0.         0.5        0.60378788 0.         0.37605779 0.
  0.5        0.64848485 0.         0.39321637]]
DUMMY mean:
[0.         0.5        0.6085101  0.         0.37641832 0.
 0.5        0.59378788 0.         0.3710896 ]
---------------------------
Current folder: C:\Users\Javier\Dropbox\c_sldl_1_2_11
-------------------------------------
----- RESULTS from .csv files ------
-------------------------------------
---------------------------
ALG Means: 
-rows: alg : KNN = 0; DT = 1; RF = 2; SVM = 3; GBM = 4; BDDAE = 5; DUMMY = 5
columns:
'val_cohen','val_uar', 'val_acc', 'val_gm',  'val_f1',  'aro_cohen','aro_uar', 'aro_acc', 'aro_gm',  'aro_f1'
-------------------------------------------------------------
  v_c   v_u   v_a   v_g   v_f1  a_c   a_u   a_a   a_g   a_f1
[[0.297 0.648 0.692 0.569 0.635 0.326 0.662 0.691 0.61  0.652]
 [0.259 0.621 0.646 0.585 0.608 0.331 0.665 0.681 0.625 0.651]
 [0.329 0.664 0.698 0.604 0.654 0.342 0.677 0.7   0.637 0.668]
 [0.072 0.534 0.637 0.129 0.438 0.091 0.545 0.633 0.168 0.453]
 [0.279 0.633 0.698 0.495 0.609 0.295 0.645 0.696 0.539 0.628]
 [0.155 0.576 0.62  0.515 0.566 0.181 0.587 0.629 0.514 0.574]
 [0.    0.5   0.609 0.    0.376 0.    0.5   0.594 0.    0.371]]
-------------------------------------------------------------
Standard Deviation of each metric:
[[0.208 0.103 0.086 0.186 0.111 0.169 0.083 0.084 0.114 0.088]
 [0.17  0.085 0.082 0.112 0.088 0.143 0.08  0.08  0.092 0.083]
 [0.185 0.088 0.081 0.146 0.092 0.152 0.073 0.073 0.087 0.075]
 [0.136 0.063 0.08  0.212 0.099 0.167 0.083 0.072 0.26  0.122]
 [0.215 0.106 0.093 0.234 0.125 0.161 0.081 0.065 0.192 0.095]
 [0.162 0.08  0.092 0.132 0.085 0.165 0.079 0.09  0.133 0.088]
 [0.    0.    0.081 0.    0.031 0.    0.    0.069 0.    0.027]]
-------------------------------------------------------------
std_dev/mean [percentage]:
[[ 70.  16.  12.  33.  17.  52.  13.  12.  19.  13.]
 [ 66.  14.  13.  19.  14.  43.  12.  12.  15.  13.]
 [ 56.  13.  12.  24.  14.  44.  11.  10.  14.  11.]
 [189.  12.  13. 164.  23. 184.  15.  11. 155.  27.]
 [ 77.  17.  13.  47.  21.  55.  13.   9.  36.  15.]
 [105.  14.  15.  26.  15.  91.  13.  14.  26.  15.]
 [  0.   0.  13.   0.   8.   0.   0.  12.   0.   7.]]
-------------------------------------
Current folder: C:\Users\Javier\Dropbox\c_sldl_1_2_11
-------------------------------------
----- RESULTS ------
-------------------------------------
Window size (sec):  11.008
step (sec):  11.008
overlap:  True
perc. of overlap:  0.0
overlap duration (sec):  0.0
Number of windows / instances:  111
Elapsed time: 444.36405621767045 minutes
Elapsed time: 7.40606760362784 hours
