2024-05-03 10:45:44.897259: I tensorflow/core/util/port.cc:113] oneDNN custom operations are on. You may see slightly different numerical results due to floating-point round-off errors from different computation orders. To turn them off, set the environment variable `TF_ENABLE_ONEDNN_OPTS=0`.
2024-05-03 10:45:45.641460: I tensorflow/core/util/port.cc:113] oneDNN custom operations are on. You may see slightly different numerical results due to floating-point round-off errors from different computation orders. To turn them off, set the environment variable `TF_ENABLE_ONEDNN_OPTS=0`.
2024-05-03 10:45:47.184867: I tensorflow/core/platform/cpu_feature_guard.cc:210] This TensorFlow binary is optimized to use available CPU instructions in performance-critical operations.
To enable the following instructions: AVX2 FMA, in other operations, rebuild TensorFlow with the appropriate compiler flags.
    
    
-------------------------------
participant:  1
-------------------------------
    
    
participant:  1
corriendo en PC gamer:
Window size (sec):  10.0
step (sec):  7.5
overlap:  True
perc. of overlap:  25.0
overlap duration (sec):  2.5
Nearest multiple of 16 to 10000 is: 10000
Nearest multiple of 16 to 7500 is: 7504
['gsr_chunks', 'ppg_chunks', 'val_chunks', 'aro_chunks', 'time_chunks', 'tag_chunks', 'video']
C:\Users\Javier\Dropbox\c_sldl_1_2_30\functions.py:880: FutureWarning: ChainedAssignmentError: behaviour will change in pandas 3.0!
You are setting values through chained assignment. Currently this works in certain cases, but when using Copy-on-Write (which will become the default behaviour in pandas 3.0) this will never work to update the original DataFrame or Series, because the intermediate object on which we are setting values will behave as a copy.
A typical example is when you are setting values in a column of a DataFrame, like:

accuracy: 0.6668 - loss: 0.6077 - val_binary_accuracy: 0.6923 - val_loss: 0.6936

[1m1/2[0m [32m━━━━━━━━━━[0m[37m━━━━━━━━━━[0m [1m0s[0m 125ms/step
[1m2/2[0m [32m━━━━━━━━━━━━━━━━━━━━[0m[37m[0m [1m0s[0m 94ms/step 
[1m2/2[0m [32m━━━━━━━━━━━━━━━━━━━━[0m[37m[0m [1m0s[0m 94ms/step
predicted [0.7317325  0.8122039  0.39382753 0.8068342  0.33129376 0.59929156
 0.72979295 0.77103233 0.5736722  0.8269372  0.8659084  0.84088206
 0.23263595 0.35391968 0.8206951  0.5654364  0.8817583  0.86653405
 0.5665575  0.48963994 0.59349734 0.7415107  0.68369544 0.7664779
 0.24366957 0.81095475 0.6397835  0.8421593  0.81407404 0.7996533
 0.69771206 0.7702718  0.81318057]
predicted [1 1 0 1 0 1 1 1 1 1 1 1 0 0 1 1 1 1 1 0 1 1 1 1 0 1 1 1 1 1 1 1 1]
expected [ True False False False False  True  True  True  True  True  True  True
 False False False  True False  True False False  True  True  True  True
 False  True  True  True  True  True  True False  True]
accuracy: 0.8181818181818182
confusion matrix: 
[[ 6  6]
 [ 0 21]]
              precision    recall  f1-score   support

       False       1.00      0.50      0.67        12
        True       0.78      1.00      0.88        21

    accuracy                           0.82        33
   macro avg       0.89      0.75      0.77        33
weighted avg       0.86      0.82      0.80        33

macro avg f1-score: 0.7708333333333333
macro avg (UAR): 0.75
Sensitivity:  0.5
Specificity:  1.0
g-mean:  0.7071067811865476
-------- Model Performance ----------: 
accuracy:  [0.63636364 0.75757576 0.57575758 0.72727273 0.6969697  0.66666667
 0.66666667 0.72727273 0.63636364 0.81818182]
gmean:  [0.56343617 0.67259271 0.43643578 0.73192505 0.66666667 0.58077671
 0.6172134  0.65465367 0.64241607 0.70710678]
f1_score:  [0.59090909 0.71304348 0.49782609 0.71794872 0.67261905 0.61587302
 0.63296259 0.68571429 0.62781955 0.77083333]
UAR:  [0.58928571 0.70238095 0.50595238 0.73214286 0.67261905 0.61309524
 0.63095238 0.67857143 0.64285714 0.75      ]
Cohen Kappa score:  [0.18518519 0.43589744 0.01282051 0.44067797 0.3452381  0.23899371
 0.26666667 0.37735849 0.26666667 0.56      ]
arousal and valece = ok
------------- Evaluating model --------------
-------------------------------------
-------------------------------------
participant:  30
-------------------------------------
----- RESULTS ------
-------------------------------------
Window size (sec):  10.0
step (sec):  7.504
overlap:  True
perc. of overlap:  24.96
overlap duration (sec):  2.496
Number of windows / instances:  163
-rows: alg : KNN = 0; DT = 1; RF = 2; SVM = 3; GBM = 4; BDDAE = 5; DUMMY = 5
columns:
'val_cohen','val_uar', 'val_acc', 'val_gm',  'val_f1',  'aro_cohen','aro_uar', 'aro_acc', 'aro_gm',  'aro_f1'
-------------------------------------------------------------
  v_c   v_u   v_a   v_g   v_f1  a_c   a_u   a_a   a_g   a_f1
[[0.675 0.846 0.841 0.839 0.834 0.538 0.765 0.791 0.755 0.767]
 [0.621 0.777 0.799 0.795 0.775 0.485 0.74  0.761 0.729 0.733]
 [0.671 0.841 0.847 0.824 0.837 0.584 0.789 0.816 0.84  0.791]
 [0.317 0.64  0.729 0.496 0.62  0.06  0.524 0.663 0.128 0.442]
 [0.493 0.743 0.785 0.71  0.745 0.38  0.665 0.748 0.587 0.663]
 [0.313 0.652 0.691 0.627 0.653 0.061 0.526 0.639 0.273 0.468]
 [0.    0.5   0.632 0.    0.387 0.    0.5   0.65  0.    0.394]]
participant performance loaded
    
    
-------------------------------
LAST participant's saved data: 
30
-------------------------------
    
    
---------------------------
KNN performance:
[[0.54618731 0.7734127  0.77536765 0.76537463 0.7700321  0.37083384
  0.68878205 0.79889706 0.55549201 0.66969217]
 [0.47867286 0.74414683 0.73676471 0.73580941 0.73508379 0.43767212
  0.70945887 0.75514706 0.66807089 0.70909154]
 [0.50120034 0.74492063 0.76213235 0.72301879 0.74402602 0.39864601
  0.69930556 0.69926471 0.69528423 0.69730035]
 [0.34016476 0.66914683 0.67536765 0.64010923 0.65775577 0.15248267
  0.57621212 0.67389706 0.44682922 0.5585458 ]
 [0.51976667 0.74707792 0.79117647 0.70919766 0.75003399 0.45965311
  0.72986111 0.73051471 0.721612   0.72679429]
 [0.51850233 0.75902778 0.75955882 0.75546263 0.75795377 0.65073554
  0.8265873  0.82720588 0.82193381 0.82396217]
 [0.37057556 0.67731602 0.71838235 0.63724518 0.67461173 0.23785952
  0.61944444 0.61875    0.61279586 0.6157273 ]
 [0.84910683 0.91674242 0.93897059 0.9116913  0.92420403 0.53361389
  0.77357143 0.77279412 0.77072999 0.76591153]
 [0.34383153 0.66795455 0.74889706 0.57996699 0.66159628 0.18526299
  0.58954545 0.68639706 0.48074446 0.57426923]
 [0.31320471 0.65694444 0.65588235 0.64685147 0.65147525 0.32832774
  0.66319444 0.66911765 0.65148342 0.65977665]
 [0.13715544 0.56690476 0.60257353 0.52517372 0.56070474 0.48581551
  0.74142857 0.75330882 0.73253239 0.74001979]
 [0.57482246 0.77857143 0.80919118 0.75988131 0.78346935 0.57112349
  0.78301587 0.79852941 0.77479463 0.78380938]
 [0.36374916 0.67952381 0.69448529 0.66228017 0.67722    0.13553128
  0.56730159 0.57720588 0.54574667 0.56058897]
 [0.18558326 0.59318182 0.63088235 0.54841287 0.58288956 0.30189435
  0.64900794 0.65404412 0.6391148  0.64702505]
 [0.13000056 0.55772727 0.65808824 0.46401577 0.55003216 0.28432709
  0.64205628 0.66838235 0.62830007 0.64081027]
 [0.21692925 0.60722222 0.61911765 0.5907321  0.60148365 0.38794479
  0.68833333 0.76139706 0.6008854  0.680091  ]
 [0.51892144 0.76222222 0.76617647 0.75620686 0.75717264 0.23886427
  0.61404762 0.66139706 0.52142827 0.59936764]
 [0.16228591 0.56785714 0.82867647 0.27769839 0.56815692 0.39050604
  0.69936508 0.71139706 0.65646822 0.68939226]
 [0.44748958 0.7094697  0.78529412 0.67449013 0.71972863 0.33962171
  0.67301587 0.66764706 0.65263635 0.65946161]
 [0.21134257 0.60106061 0.66875    0.52171263 0.5948505  0.2017348
  0.59426407 0.65625    0.51493346 0.58003379]
 [0.01294598 0.5        0.67610294 0.28315586 0.49199551 0.0262232
  0.51319444 0.51544118 0.49012979 0.50412924]
 [0.34736366 0.67291667 0.675      0.64825009 0.66288625 0.32139114
  0.65424242 0.70514706 0.61776166 0.65325847]
 [0.11049111 0.55706349 0.57720588 0.50577852 0.5468313  0.29217856
  0.62448718 0.77426471 0.50410518 0.63144587]
 [0.1145438  0.55704365 0.55808824 0.54823684 0.55256633 0.53290988
  0.76248016 0.77316176 0.75265595 0.76396868]
 [0.40665808 0.70454365 0.70514706 0.70049004 0.70133981 0.59573156
  0.79722222 0.79889706 0.78615922 0.79343826]
 [0.29846177 0.64722222 0.65477941 0.60820874 0.63224622 0.34670724
  0.67420635 0.675      0.66772131 0.67091273]
 [0.45068969 0.71954545 0.77426471 0.6925407  0.72332649 0.53049645
  0.76458333 0.76580882 0.75693455 0.76274375]
 [0.2587037  0.62454545 0.66764706 0.5849788  0.61908572 0.59736118
  0.79730159 0.80992647 0.78588776 0.79574477]
 [0.14597274 0.56954545 0.61433824 0.53014533 0.56479785 0.30688825
  0.65367063 0.65661765 0.64012292 0.64734775]
 [0.67457088 0.84606061 0.84080882 0.83870695 0.83370736 0.53755139
  0.765      0.79117647 0.75526037 0.76722285]]
KNN mean:
[0.35166313 0.67263059 0.71230392 0.62752744 0.66837546 0.37266299
 0.68447291 0.71356618 0.64828516 0.67906277]
---------------------------
---------------------------
DT performance:
[[ 0.52791156  0.74801587  0.74889706  0.7349799   0.74351912  0.38259784
   0.67660256  0.76801471  0.59309143  0.66560693]
 [ 0.54151447  0.73511905  0.73566176  0.74254866  0.72978214  0.49800798
   0.76800866  0.78492647  0.77751434  0.75775552]
 [ 0.36649561  0.64396825  0.6375      0.67203975  0.63372683  0.38462709
   0.68055556  0.68051471  0.6809218   0.67876493]
 [ 0.42330753  0.71815476  0.71764706  0.70613089  0.7112181   0.14056966
   0.57393939  0.64375     0.53998763  0.56798425]
 [ 0.35815809  0.72298701  0.72389706  0.71322564  0.71200517  0.423572
   0.75555556  0.75551471  0.70978784  0.74611559]
 [ 0.3141172   0.66180556  0.6625      0.66541937  0.65670709  0.5591849
   0.79206349  0.79227941  0.76756128  0.78869551]
 [ 0.33230772  0.63945887  0.65625     0.66426303  0.63368876  0.31371581
   0.60763889  0.60772059  0.61706304  0.60110967]
 [ 0.80092774  0.89098485  0.90845588  0.88316276  0.89120905  0.48887011
   0.75095238  0.75404412  0.73071772  0.74374235]
 [ 0.30934372  0.62704545  0.68088235  0.59117612  0.62127008  0.05049237
   0.52848485  0.61507353  0.40739454  0.52416868]
 [ 0.34921974  0.6625      0.6625      0.64729075  0.65859827  0.3826027
   0.71746032  0.71948529  0.71259346  0.716223  ]
 [ 0.04911199  0.51309524  0.54264706  0.44440547  0.51054415  0.35230637
   0.69904762  0.70036765  0.64940534  0.68150343]
 [ 0.53400912  0.80497835  0.81507353  0.78525435  0.80086333  0.40552521
   0.69873016  0.7125      0.67528298  0.69600975]
 [ 0.30099262  0.65468254  0.66764706  0.63905041  0.65037258  0.08986641
   0.55934524  0.56544118  0.5443517   0.55092584]
 [ 0.27713037  0.60378788  0.61397059  0.61581012  0.5929573   0.25266898
   0.64791667  0.64889706  0.61433689  0.64308038]
 [ 0.1478485   0.57        0.61544118  0.50991617  0.56426035  0.0724375
   0.54034632  0.57683824  0.51390614  0.52713609]
 [ 0.35404088  0.67849206  0.67977941  0.64412193  0.66313462  0.55435135
   0.77727273  0.80477941  0.73238592  0.77466717]
 [ 0.71289026  0.865       0.86397059  0.86596028  0.85944373  0.45350062
   0.70650794  0.72169118  0.67633103  0.70042815]
 [ 0.15479332  0.53571429  0.77389706  0.42613459  0.52079337  0.35310793
   0.71888889  0.72904412  0.64050094  0.71276176]
 [ 0.39315982  0.71886364  0.75404412  0.68030853  0.7009953   0.48491862
   0.73829365  0.74264706  0.7062459   0.73245095]
 [ 0.10634743  0.55181818  0.59411765  0.58510415  0.54634199  0.26756785
   0.64941558  0.66985294  0.58317922  0.6356522 ]
 [ 0.10898288  0.55        0.66948529  0.37827141  0.54803413 -0.07605081
   0.43125     0.43125     0.41859008  0.42592792]
 [ 0.21468052  0.58819444  0.58860294  0.58999353  0.58033073  0.40931386
   0.73969697  0.75477941  0.70284709  0.72963955]
 [ 0.19845572  0.62055556  0.63235294  0.55690546  0.6169403   0.35505441
   0.70230769  0.77867647  0.56119506  0.69505758]
 [ 0.38584424  0.66855159  0.66911765  0.65236811  0.66251059  0.41762152
   0.73480159  0.7375      0.72640762  0.73215093]
 [ 0.38608508  0.66914683  0.66948529  0.68532056  0.66256656  0.64541267
   0.82222222  0.82316176  0.78485067  0.82116653]
 [ 0.28544638  0.66676587  0.66875     0.62640484  0.66341909  0.34136191
   0.65297619  0.65661765  0.64023484  0.65184238]
 [ 0.36657273  0.65939394  0.70661765  0.60465969  0.64413863  0.58166131
   0.75972222  0.76066176  0.76653887  0.75516333]
 [ 0.09931918  0.54106061  0.58235294  0.51719595  0.52814667  0.44400613
   0.72587302  0.73051471  0.6996658   0.71732993]
 [ 0.22337806  0.60287879  0.63823529  0.58474061  0.59607122  0.14495646
   0.58928571  0.59558824  0.5353798   0.58485608]
 [ 0.6212898   0.77727273  0.79852941  0.7952625   0.77536097  0.48488399
   0.74015152  0.76139706  0.72876968  0.73260658]]
DT mean:
[0.34145607 0.66300974 0.68927696 0.64024752 0.65596501 0.35529043
 0.68284379 0.70078431 0.64790129 0.67635077]
---------------------------
---------------------------
RF performance:
[[0.57746292 0.79246032 0.79742647 0.77925478 0.79317584 0.37226777
  0.70961538 0.80404412 0.57904743 0.69256925]
 [0.57937352 0.7702381  0.77316176 0.77467874 0.76820806 0.48236424
  0.75967532 0.77904412 0.75164988 0.75342787]
 [0.53255766 0.7134127  0.73125    0.69483927 0.71280627 0.405879
  0.71041667 0.71066176 0.71719078 0.70627878]
 [0.45664344 0.68045635 0.68125    0.67801188 0.67407314 0.22908151
  0.61       0.69816176 0.4671052  0.60769759]
 [0.46629615 0.74207792 0.77279412 0.69331123 0.74480016 0.55765912
  0.77291667 0.77316176 0.71049553 0.76932163]
 [0.40132197 0.73541667 0.73529412 0.68759363 0.73232627 0.58093743
  0.79603175 0.79779412 0.74799968 0.79408018]
 [0.32673552 0.68162338 0.71102941 0.67480414 0.6767912  0.33334113
  0.67361111 0.675      0.69464056 0.66833274]
 [0.83661292 0.8980303  0.92022059 0.91958629 0.89462371 0.61173127
  0.74261905 0.74926471 0.72470066 0.73915133]
 [0.50286088 0.7330303  0.77941176 0.65661964 0.73190974 0.18475551
  0.61878788 0.69301471 0.51182392 0.60978004]
 [0.32597701 0.66805556 0.66727941 0.67164583 0.66233094 0.31859896
  0.64434524 0.64448529 0.72378657 0.63406303]
 [0.32435867 0.595      0.61654412 0.65287499 0.59240291 0.48542489
  0.715      0.72904412 0.72516578 0.70890183]
 [0.59548204 0.78904762 0.81507353 0.77607266 0.79272448 0.52129972
  0.74873016 0.76139706 0.76072714 0.74638254]
 [0.42671083 0.67468254 0.69227941 0.64942514 0.67452775 0.13608917
  0.54880952 0.55183824 0.57673924 0.53598135]
 [0.2153533  0.60151515 0.65       0.55527045 0.59902707 0.39687431
  0.68105159 0.68602941 0.66653207 0.67736633]
 [0.24496943 0.60893939 0.65698529 0.48303033 0.59177143 0.21555502
  0.62199134 0.65073529 0.54505895 0.61233539]
 [0.35136331 0.66095238 0.67463235 0.56307866 0.65993268 0.54658009
  0.72772727 0.76801471 0.72176147 0.71553753]
 [0.7854288  0.84738095 0.85845588 0.85918419 0.8500045  0.43299228
  0.73492063 0.74191176 0.75306039 0.72738406]
 [0.13287286 0.5952381  0.81654412 0.20542304 0.57541475 0.45932473
  0.74777778 0.76102941 0.68188624 0.74596734]
 [0.54514929 0.7144697  0.77941176 0.64292682 0.71118296 0.48784901
  0.74900794 0.75367647 0.74566295 0.74645789]
 [0.17788578 0.61424242 0.66727941 0.57982077 0.61400386 0.27952371
  0.57915584 0.61397059 0.60684142 0.56828873]
 [0.01457039 0.49551282 0.65625    0.3656126  0.48758394 0.09910274
  0.47777778 0.47830882 0.47270262 0.47015973]
 [0.25344023 0.70763889 0.70551471 0.61013689 0.70045348 0.31285336
  0.61893939 0.66102941 0.64105702 0.61661472]
 [0.18716413 0.64103175 0.65073529 0.52758243 0.63397743 0.33086917
  0.57044872 0.71213235 0.55909598 0.56169046]
 [0.37822552 0.68482143 0.68602941 0.64752922 0.67896195 0.484818
  0.75458333 0.75330882 0.76792835 0.74879509]
 [0.4318119  0.66244048 0.66875    0.67326725 0.65843453 0.54369483
  0.77847222 0.77977941 0.82195471 0.77592142]
 [0.29520363 0.61577381 0.61985294 0.63539142 0.61484631 0.45741478
  0.71676587 0.71691176 0.69109475 0.7133427 ]
 [0.39743543 0.74007576 0.78051471 0.68319894 0.73205988 0.61869005
  0.76666667 0.76691176 0.75974984 0.76523146]
 [0.24398025 0.58530303 0.64338235 0.57558354 0.58703745 0.56130886
  0.78912698 0.79852941 0.72231954 0.78223039]
 [0.27597666 0.68106061 0.72316176 0.6449159  0.67606254 0.27643305
  0.61319444 0.61323529 0.58290277 0.6084216 ]
 [0.67110588 0.84060606 0.84742647 0.82410273 0.8373584  0.58366813
  0.78939394 0.81580882 0.84045639 0.79119494]]
RF mean:
[0.39847768 0.69235115 0.72593137 0.64615911 0.68862712 0.41023273
 0.69225202 0.71460784 0.67570459 0.68643026]
---------------------------
---------------------------
SVM performance:
[[ 0.13798593  0.56458333  0.60220588  0.32443643  0.48905863  0.
   0.5         0.75441176  0.          0.43      ]
 [ 0.36341777  0.67708333  0.69264706  0.65019707  0.6725435   0.17443801
   0.57380952  0.68088235  0.31656582  0.51830383]
 [ 0.47643397  0.72571429  0.76139706  0.66942256  0.71985328  0.47163963
   0.73611111  0.73566176  0.73285012  0.7343695 ]
 [ 0.29313813  0.64146825  0.66176471  0.56179672  0.61310397  0.
   0.5         0.70551471  0.          0.41355592]
 [ 0.48517636  0.72162338  0.78529412  0.66359758  0.72708089  0.42289512
   0.71111111  0.7125      0.69565272  0.7055914 ]
 [ 0.35714286  0.67777778  0.68235294  0.64702291  0.66595875  0.55011954
   0.77440476  0.77867647  0.76779681  0.77303483]
 [ 0.          0.5         0.61985294  0.          0.38259056  0.27372082
   0.6375      0.6375      0.60570326  0.62309103]
 [ 0.74162248  0.85424242  0.89595588  0.84297059  0.86962692  0.43404408
   0.70936508  0.74227941  0.6749107   0.70787715]
 [ 0.          0.5         0.68713235  0.          0.40722952  0.
   0.5         0.69926471  0.          0.41143952]
 [ 0.31507546  0.65763889  0.65661765  0.64899783  0.65298847  0.23908421
   0.61488095  0.63823529  0.50783221  0.57492205]
 [ 0.          0.5         0.60147059  0.          0.3754188   0.12040486
   0.55214286  0.63897059  0.23282116  0.4731917 ]
 [ 0.04754688  0.52        0.63235294  0.09855986  0.42411477  0.
   0.5         0.60772059  0.          0.37788034]
 [ 0.06672617  0.53015873  0.59485294  0.16684159  0.4277216   0.
   0.5         0.55845588  0.          0.35826781]
 [ 0.          0.5         0.63161765  0.          0.38708791  0.34288176
   0.66924603  0.67426471  0.65537129  0.66567904]
 [ 0.          0.5         0.67536765  0.          0.40304233  0.
   0.5         0.62573529  0.          0.38483923]
 [ 0.          0.5         0.59522059  0.          0.37295726  0.
   0.5         0.67536765  0.          0.40304233]
 [ 0.          0.5         0.58897059  0.          0.37049573  0.
   0.5         0.59522059  0.          0.37295726]
 [ 0.          0.5         0.85955882  0.          0.46215054  0.06314722
   0.52753968  0.60735294  0.17289835  0.43629303]
 [ 0.          0.5         0.69926471  0.          0.41143952  0.
   0.5         0.54007353  0.          0.35051282]
 [ 0.          0.5         0.65661765  0.          0.39620472  0.
   0.5         0.62573529  0.          0.38483923]
 [ 0.          0.5         0.76066176  0.          0.43197044 -0.01055936
   0.49444444  0.49117647  0.09341724  0.35908333]
 [ 0.17393452  0.58611111  0.58897059  0.4741744   0.53308825  0.
   0.5         0.65036765  0.          0.39392552]
 [ 0.          0.5         0.58272059  0.          0.36803419  0.
   0.5         0.74264706  0.          0.42609195]
 [ 0.          0.5         0.52757353  0.          0.34517949  0.36641217
   0.67353175  0.70588235  0.60047969  0.65623361]
 [ 0.03157895  0.51428571  0.57095588  0.07559289  0.38626781  0.447204
   0.72361111  0.72389706  0.70034188  0.71374441]
 [-0.02        0.49047619  0.52132353  0.03086067  0.34950849  0.39832671
   0.69900794  0.70514706  0.68075535  0.69281735]
 [ 0.09964764  0.54        0.71727941  0.15268827  0.47742692  0.5311617
   0.76527778  0.76580882  0.75204445  0.76055322]
 [ 0.          0.5         0.64411765  0.          0.39164632  0.06769231
   0.52833333  0.62647059  0.16120432  0.43689133]
 [ 0.          0.5         0.63161765  0.          0.38708791  0.03590889
   0.51656746  0.55294118  0.14874468  0.39979116]
 [ 0.31695971  0.64        0.72904412  0.49611675  0.61963104  0.06009136
   0.52378788  0.66286765  0.12836767  0.44206858]]
SVM mean:
[0.12954623 0.56137211 0.66182598 0.21677587 0.48401695 0.1662871
 0.58102243 0.66203431 0.28759192 0.51269628]
---------------------------
---------------------------
GBM performance:
[[ 0.58377058  0.77916667  0.79117647  0.77325337  0.78058477  0.26294372
   0.625       0.81691176  0.33284271  0.61969475]
 [ 0.3921463   0.69206349  0.70441176  0.67994807  0.68936125  0.53010115
   0.76450216  0.80919118  0.71457546  0.77547358]
 [ 0.45631173  0.70960317  0.74264706  0.65980934  0.70488095  0.39712709
   0.69930556  0.69816176  0.69040703  0.69426272]
 [ 0.38774444  0.68472222  0.69264706  0.66416528  0.67445638  0.01714976
   0.51128788  0.70551471  0.0873615   0.4431518 ]
 [ 0.4457076   0.69733766  0.76029412  0.64452678  0.69893986  0.39472099
   0.70902778  0.71066176  0.68822341  0.69977246]
 [ 0.44683751  0.72430556  0.72279412  0.71584445  0.7194843   0.61386404
   0.81021825  0.81617647  0.80034376  0.80978574]
 [ 0.41318174  0.68047619  0.74191176  0.63412716  0.6844238   0.32227982
   0.65486111  0.65625     0.64205246  0.64615369]
 [ 0.79440539  0.88969697  0.91470588  0.88316276  0.89644291  0.54169169
   0.7634127   0.77941176  0.74893223  0.76129278]
 [ 0.22588977  0.59977273  0.73051471  0.40178822  0.57815976 -0.02576639
   0.4980303   0.68088235  0.08127682  0.4280018 ]
 [ 0.33537356  0.67430556  0.67389706  0.65155373  0.66697164  0.37596845
   0.68561508  0.69448529  0.65053517  0.67834993]
 [ 0.14482741  0.5681746   0.63235294  0.41115201  0.53682517  0.57858484
   0.77555556  0.80404412  0.73662501  0.77280081]
 [ 0.59769292  0.78261905  0.81580882  0.75372903  0.78483361  0.53998224
   0.77206349  0.78602941  0.74600712  0.76414795]
 [ 0.29337716  0.63944444  0.675       0.57528235  0.62533917  0.19549094
   0.61134921  0.63308824  0.52781339  0.59134469]
 [ 0.1364262   0.55969697  0.66176471  0.31706699  0.50606174  0.33334804
   0.66934524  0.68014706  0.652734    0.66339233]
 [-0.00979938  0.49636364  0.66323529  0.04264014  0.41205942  0.05802945
   0.52426407  0.61985294  0.30159722  0.48272777]
 [ 0.18039434  0.58150794  0.64411765  0.46510051  0.55385658  0.31983317
   0.64363636  0.74227941  0.53244526  0.63972954]
 [ 0.76978918  0.88452381  0.88860294  0.88142447  0.88431463  0.31456164
   0.64809524  0.69264706  0.56633436  0.63749048]
 [ 0.          0.5         0.85955882  0.          0.46215054  0.47221131
   0.73674603  0.75955882  0.67438561  0.72383617]
 [ 0.28459989  0.62386364  0.75441176  0.42726427  0.61973833  0.41326645
   0.70426587  0.71654412  0.66645579  0.69289711]
 [ 0.19473171  0.59075758  0.68014706  0.4566133   0.57444648  0.19701393
   0.5925974   0.67536765  0.43003334  0.5555462 ]
 [ 0.          0.5         0.76066176  0.          0.43197044  0.09291186
   0.53402778  0.53419118  0.52252276  0.52877907]
 [ 0.2917684   0.64583333  0.64448529  0.62318849  0.63425932  0.28898002
   0.62242424  0.70588235  0.53327419  0.60859835]
 [ 0.23910704  0.61849206  0.65735294  0.54819229  0.60371212  0.15441277
   0.57378205  0.75588235  0.32236296  0.5531813 ]
 [ 0.25161271  0.62490079  0.63272059  0.58762887  0.61106807  0.46272119
   0.72565476  0.74227941  0.70360128  0.72459847]
 [ 0.38867261  0.67954365  0.70625     0.63563261  0.67202698  0.68132686
   0.85208333  0.85294118  0.85488308  0.85153951]
 [ 0.40983444  0.69940476  0.71727941  0.63722252  0.6797182   0.35040747
   0.68055556  0.68713235  0.674211    0.67638439]
 [ 0.34718185  0.65515152  0.76213235  0.54242819  0.6606067   0.54599432
   0.76736111  0.76654412  0.75852593  0.76355466]
 [ 0.25427069  0.61181818  0.70588235  0.50108997  0.59827923  0.45810749
   0.71047619  0.75625     0.65409884  0.70640514]
 [ 0.41520894  0.68969697  0.76066176  0.60906334  0.68444161  0.25443758
   0.62609127  0.63860294  0.58557552  0.61633114]
 [ 0.49318431  0.7430303   0.78529412  0.71028828  0.74516184  0.37983817
   0.66469697  0.74779412  0.58666556  0.66307551]]
GBM mean:
[0.3388083  0.66087578 0.72942402 0.54777289 0.64581919 0.350718
 0.67187775 0.72215686 0.58222343 0.65907666]
---------------------------
---------------------------
BDDAE performance:
[[-0.01159354  0.49388889  0.4969697   0.48280849  0.48902208  0.00123933
   0.49925     0.72424242  0.17317499  0.46882528]
 [ 0.33706088  0.66722222  0.67272727  0.65763386  0.66495848  0.52758647
   0.7577381   0.78484848  0.74923731  0.7627352 ]
 [-0.06518762  0.46954887  0.50606061  0.30367431  0.42817426  0.00678606
   0.50330882  0.50606061  0.4816815   0.49381835]
 [-0.05630287  0.47055556  0.47575758  0.45203147  0.46350808  0.0836909
   0.5376087   0.66666667  0.38502302  0.51880505]
 [ 0.41338746  0.70297619  0.73333333  0.67728404  0.69875462  0.27069436
   0.63602941  0.63333333  0.61993884  0.62685707]
 [ 0.50688446  0.75275735  0.75454545  0.74277583  0.74967441 -0.20849161
   0.39888889  0.41515152  0.27115565  0.36287081]
 [ 0.07910039  0.53923077  0.58181818  0.46432075  0.51849498 -0.0593509
   0.47022059  0.46969697  0.46176066  0.46568446]
 [ 0.41523209  0.69086957  0.78181818  0.62892173  0.69673525  0.1140967
   0.55384615  0.60606061  0.48222786  0.54064361]
 [ 0.31048445  0.63934783  0.74545455  0.55177877  0.6357375   0.39245368
   0.66        0.79393939  0.55892818  0.67403519]
 [ 0.01167405  0.50606618  0.50606061  0.49413518  0.50016575  0.18714915
   0.59277778  0.6         0.58221994  0.59036039]
 [-0.0862435   0.45826923  0.5         0.40106321  0.4480375   0.22862488
   0.61192308  0.64545455  0.57171225  0.6039201 ]
 [-0.00544221  0.4975      0.53939394  0.44530825  0.48822488  0.30081927
   0.65269231  0.66060606  0.64966875  0.6490154 ]
 [ 0.23474038  0.61578947  0.63333333  0.59390602  0.61113237  0.34656283
   0.67333333  0.67575758  0.66861695  0.67135469]
 [ 0.0942662   0.54345238  0.61212121  0.46931041  0.53342822  0.29068005
   0.64540441  0.64545455  0.64182758  0.64366512]
 [ 0.05437808  0.525       0.60909091  0.42462282  0.51502465  0.24484225
   0.62440476  0.65151515  0.59822162  0.61590157]
 [ 0.14033194  0.57096154  0.59090909  0.54591125  0.56279294  0.19974443
   0.58181818  0.70909091  0.40948984  0.55931766]
 [ 0.54398099  0.77819549  0.77272727  0.7679751   0.76726443  0.18746539
   0.5825      0.64242424  0.4928758   0.56541787]
 [ 0.24504431  0.6225      0.83333333  0.43898126  0.60821812  0.08718835
   0.54229323  0.57575758  0.45886719  0.51645343]
 [ 0.19773175  0.58608696  0.69090909  0.51512487  0.58837772  0.32611903
   0.66222222  0.66666667  0.65519298  0.66050181]
 [ 0.12490718  0.55681818  0.66060606  0.39830023  0.53583136 -0.05847097
   0.47380952  0.58484848  0.19903935  0.41450399]
 [-0.01654088  0.4955      0.71212121  0.13251254  0.45726775  0.26109353
   0.63069853  0.63030303  0.62665703  0.62848056]
 [ 0.15465612  0.57720588  0.57878788  0.5583263   0.56879745  0.01079525
   0.5047619   0.5969697   0.34979054  0.47692484]
 [ 0.04090511  0.5212406   0.53636364  0.50016113  0.51613752  0.38276142
   0.65902778  0.7969697   0.57865796  0.67935527]
 [ 0.07590308  0.53805147  0.53939394  0.52788407  0.53362053  0.21815481
   0.60722222  0.61818182  0.58456896  0.60102898]
 [ 0.03546118  0.51722222  0.52727273  0.49113416  0.50880565  0.12426408
   0.5625      0.56060606  0.54826478  0.55453987]
 [ 0.14567244  0.57222222  0.58181818  0.55695752  0.56866677  0.21988674
   0.60888889  0.61818182  0.5920185   0.60473411]
 [ 0.44450366  0.70434783  0.78484848  0.66876079  0.71826222  0.60946744
   0.80330882  0.80606061  0.79352529  0.80155267]
 [ 0.01053817  0.5047619   0.56060606  0.44559938  0.49563509  0.40147227
   0.69134615  0.73030303  0.66113287  0.69424202]
 [ 0.12742525  0.56011905  0.61515152  0.51277833  0.55591282  0.33289015
   0.66333333  0.67575758  0.6426758   0.65965721]
 [ 0.31295047  0.65178571  0.69090909  0.6273223   0.65255492  0.06128124
   0.52559524  0.63939394  0.27339017  0.46821142]]
BDDAE mean:
[0.16053032 0.57764979 0.62747475 0.51591015 0.56930728 0.20304989
 0.59722508 0.64434343 0.52538474 0.58578047]
---------------------------
---------------------------
DUMMY performance:
[[0.         0.5        0.54632353 0.         0.35317949 0.
  0.5        0.75441176 0.         0.43      ]
 [0.         0.5        0.54632353 0.         0.35317949 0.
  0.5        0.62573529 0.         0.38483923]
 [0.         0.5        0.57022059 0.         0.36311111 0.
  0.5        0.50882353 0.         0.33717949]
 [0.         0.5        0.54007353 0.         0.35051282 0.
  0.5        0.70551471 0.         0.41355592]
 [0.         0.5        0.62573529 0.         0.38483923 0.
  0.5        0.50882353 0.         0.33717949]
 [0.         0.5        0.50882353 0.         0.33717949 0.
  0.5        0.54007353 0.         0.35051282]
 [0.         0.5        0.61985294 0.         0.38259056 0.
  0.5        0.50294118 0.         0.3345641 ]
 [0.         0.5        0.68713235 0.         0.40722952 0.
  0.5        0.60147059 0.         0.3754188 ]
 [0.         0.5        0.68713235 0.         0.40722952 0.
  0.5        0.69926471 0.         0.41143952]
 [0.         0.5        0.50882353 0.         0.33717949 0.
  0.5        0.54007353 0.         0.35051282]
 [0.         0.5        0.60147059 0.         0.3754188  0.
  0.5        0.60147059 0.         0.3754188 ]
 [0.         0.5        0.61985294 0.         0.38259056 0.
  0.5        0.60772059 0.         0.37788034]
 [0.         0.5        0.57022059 0.         0.36311111 0.
  0.5        0.55845588 0.         0.35826781]
 [0.         0.5        0.63161765 0.         0.38708791 0.
  0.5        0.52757353 0.         0.34517949]
 [0.         0.5        0.67536765 0.         0.40304233 0.
  0.5        0.62573529 0.         0.38483923]
 [0.         0.5        0.59522059 0.         0.37295726 0.
  0.5        0.67536765 0.         0.40304233]
 [0.         0.5        0.58897059 0.         0.37049573 0.
  0.5        0.59522059 0.         0.37295726]
 [0.         0.5        0.85955882 0.         0.46215054 0.
  0.5        0.58897059 0.         0.37049573]
 [0.         0.5        0.69926471 0.         0.41143952 0.
  0.5        0.54007353 0.         0.35051282]
 [0.         0.5        0.65661765 0.         0.39620472 0.
  0.5        0.62573529 0.         0.38483923]
 [0.         0.5        0.76066176 0.         0.43197044 0.
  0.5        0.49117647 0.         0.32933333]
 [0.         0.5        0.50882353 0.         0.33717949 0.
  0.5        0.65036765 0.         0.39392552]
 [0.         0.5        0.58272059 0.         0.36803419 0.
  0.5        0.74264706 0.         0.42609195]
 [0.         0.5        0.52757353 0.         0.34517949 0.
  0.5        0.55845588 0.         0.35826781]
 [0.         0.5        0.55845588 0.         0.35826781 0.
  0.5        0.50294118 0.         0.3345641 ]
 [0.         0.5        0.53382353 0.         0.34784615 0.
  0.5        0.54007353 0.         0.35051282]
 [0.         0.5        0.69301471 0.         0.40932312 0.
  0.5        0.50882353 0.         0.33717949]
 [0.         0.5        0.64411765 0.         0.39164632 0.
  0.5        0.60772059 0.         0.37788034]
 [0.         0.5        0.63161765 0.         0.38708791 0.
  0.5        0.54007353 0.         0.35051282]
 [0.         0.5        0.63161765 0.         0.38708791 0.
  0.5        0.65036765 0.         0.39392552]]
DUMMY mean:
[0.         0.5        0.61370098 0.         0.37881173 0.
 0.5        0.5908701  0.         0.37002763]
---------------------------
Current folder: C:\Users\Javier\Dropbox\c_sldl_1_2_30
-------------------------------------
----- RESULTS from .csv files ------
-------------------------------------
---------------------------
ALG Means: 
-rows: alg : KNN = 0; DT = 1; RF = 2; SVM = 3; GBM = 4; BDDAE = 5; DUMMY = 5
columns:
'val_cohen','val_uar', 'val_acc', 'val_gm',  'val_f1',  'aro_cohen','aro_uar', 'aro_acc', 'aro_gm',  'aro_f1'
-------------------------------------------------------------
  v_c   v_u   v_a   v_g   v_f1  a_c   a_u   a_a   a_g   a_f1
[[0.352 0.673 0.712 0.628 0.668 0.373 0.684 0.714 0.648 0.679]
 [0.341 0.663 0.689 0.64  0.656 0.355 0.683 0.701 0.648 0.676]
 [0.398 0.692 0.726 0.646 0.689 0.41  0.692 0.715 0.676 0.686]
 [0.13  0.561 0.662 0.217 0.484 0.166 0.581 0.662 0.288 0.513]
 [0.339 0.661 0.729 0.548 0.646 0.351 0.672 0.722 0.582 0.659]
 [0.161 0.578 0.627 0.516 0.569 0.203 0.597 0.644 0.525 0.586]
 [0.    0.5   0.614 0.    0.379 0.    0.5   0.591 0.    0.37 ]]
-------------------------------------------------------------
Standard Deviation of each metric:
[[0.188 0.095 0.085 0.138 0.097 0.153 0.077 0.073 0.103 0.08 ]
 [0.177 0.092 0.082 0.115 0.093 0.17  0.088 0.085 0.098 0.089]
 [0.186 0.087 0.076 0.136 0.089 0.144 0.082 0.077 0.097 0.084]
 [0.193 0.092 0.086 0.284 0.138 0.195 0.097 0.07  0.304 0.144]
 [0.194 0.095 0.072 0.22  0.112 0.177 0.089 0.068 0.189 0.103]
 [0.175 0.085 0.101 0.126 0.091 0.177 0.086 0.089 0.153 0.099]
 [0.    0.    0.078 0.    0.029 0.    0.    0.073 0.    0.028]]
-------------------------------------------------------------
std_dev/mean [percentage]:
[[ 53.  14.  12.  22.  15.  41.  11.  10.  16.  12.]
 [ 52.  14.  12.  18.  14.  48.  13.  12.  15.  13.]
 [ 47.  13.  10.  21.  13.  35.  12.  11.  14.  12.]
 [149.  16.  13. 131.  29. 117.  17.  11. 106.  28.]
 [ 57.  14.  10.  40.  17.  50.  13.   9.  32.  16.]
 [109.  15.  16.  24.  16.  87.  14.  14.  29.  17.]
 [  0.   0.  13.   0.   8.   0.   0.  12.   0.   8.]]
-------------------------------------
Current folder: C:\Users\Javier\Dropbox\c_sldl_1_2_30
-------------------------------------
----- RESULTS ------
-------------------------------------
Window size (sec):  10.0
step (sec):  7.504
overlap:  True
perc. of overlap:  24.96
overlap duration (sec):  2.496
Number of windows / instances:  163
Elapsed time: 561.7763191461563 minutes
Elapsed time: 9.362938652435938 hours
