2024-03-20 23:13:43.580041: I tensorflow/core/util/port.cc:113] oneDNN custom operations are on. You may see slightly different numerical results due to floating-point round-off errors from different computation orders. To turn them off, set the environment variable `TF_ENABLE_ONEDNN_OPTS=0`.
2024-03-20 23:13:47.521320: I tensorflow/core/util/port.cc:113] oneDNN custom operations are on. You may see slightly different numerical results due to floating-point round-off errors from different computation orders. To turn them off, set the environment variable `TF_ENABLE_ONEDNN_OPTS=0`.
2024-03-20 23:13:57.213927: I tensorflow/core/platform/cpu_feature_guard.cc:210] This TensorFlow binary is optimized to use available CPU instructions in performance-critical operations.
To enable the following instructions: AVX2 FMA, in other operations, rebuild TensorFlow with the appropriate compiler flags.
    
    
-------------------------------
participant:  1
-------------------------------
    
    
participant:  1
corriendo en PC gamer:
Window size (sec):  30.0
step (sec):  22.5
overlap:  True
perc. of overlap:  25.0
overlap duration (sec):  7.5
Nearest multiple of 16 to 30000 is: 30000
Nearest multiple of 16 to 22500 is: 22496
['gsr_chunks', 'ppg_chunks', 'val_chunks', 'aro_chunks', 'time_chunks', 'tag_chunks', 'video']
C:\Users\Javier\Dropbox\c_sldl_1_2_21\functions.py:880: FutureWarning: ChainedAssignmentError: behaviour will change in pandas 3.0!

[1m1/1[0m [32m━━━━━━━━━━━━━━━━━━━━[0m[37m[0m [1m0s[0m 109ms/step
predicted [0.7298237  0.9047872  0.60715604 0.8708259  0.1302777  0.64841837
 0.32538763 0.12348627 0.10754064 0.00795028]
predicted [1 1 1 1 0 1 0 0 0 0]
expected [ True  True  True False False False  True  True  True False]
accuracy: 0.5
confusion matrix: 
[[2 2]
 [3 3]]
              precision    recall  f1-score   support

       False       0.40      0.50      0.44         4
        True       0.60      0.50      0.55         6

    accuracy                           0.50        10
   macro avg       0.50      0.50      0.49        10
weighted avg       0.52      0.50      0.51        10

macro avg f1-score: 0.4949494949494949
macro avg (UAR): 0.5
Sensitivity:  0.5
Specificity:  0.5
g-mean:  0.5
-------- Model Performance ----------: 
accuracy:  [0.8 0.6 0.8 0.5 0.5 0.5 0.8 0.7 0.6 0.5]
gmean:  [0.79056942 0.61237244 0.79056942 0.         0.40824829 0.40824829
 0.79056942 0.64549722 0.57735027 0.5       ]
f1_score:  [0.79166667 0.6        0.79166667 0.33333333 0.45054945 0.45054945
 0.79166667 0.67032967 0.58333333 0.49494949]
UAR:  [0.79166667 0.625      0.79166667 0.41666667 0.45833333 0.45833333
 0.79166667 0.66666667 0.58333333 0.5       ]
Cohen Kappa score:  [ 0.58333333  0.23076923  0.58333333 -0.19047619 -0.08695652 -0.08695652
  0.58333333  0.34782609  0.16666667  0.        ]
arousal and valece = ok
------------- Evaluating model --------------
-------------------------------------
-------------------------------------
participant:  30
-------------------------------------
----- RESULTS ------
-------------------------------------
Window size (sec):  30.0
step (sec):  22.496
overlap:  True
perc. of overlap:  25.013333333333332
overlap duration (sec):  7.504
Number of windows / instances:  50
-rows: alg : KNN = 0; DT = 1; RF = 2; SVM = 3; GBM = 4; BDDAE = 5; DUMMY = 5
columns:
'val_cohen','val_uar', 'val_acc', 'val_gm',  'val_f1',  'aro_cohen','aro_uar', 'aro_acc', 'aro_gm',  'aro_f1'
-------------------------------------------------------------
  v_c   v_u   v_a   v_g   v_f1  a_c   a_u   a_a   a_g   a_f1
[[1.    1.    1.    1.    1.    0.371 0.692 0.74  0.538 0.656]
 [0.787 0.825 0.84  0.881 0.804 0.467 0.75  0.8   0.583 0.717]
 [0.711 0.883 0.88  0.823 0.871 0.627 0.796 0.78  0.654 0.756]
 [0.    0.5   0.6   0.    0.375 0.    0.5   0.66  0.    0.396]
 [0.825 0.842 0.86  0.857 0.828 0.564 0.788 0.84  0.612 0.748]
 [0.213 0.608 0.63  0.552 0.596 0.024 0.514 0.56  0.424 0.492]
 [0.    0.5   0.6   0.    0.375 0.    0.5   0.66  0.    0.396]]
participant performance loaded
    
    
-------------------------------
LAST participant's saved data: 
30
-------------------------------
    
    
---------------------------
KNN performance:
[[ 2.82867133e-01  6.33333333e-01  6.40000000e-01  5.66986773e-01
   6.12142857e-01  2.33116883e-01  6.25000000e-01  7.60000000e-01
   3.41421356e-01  5.80357143e-01]
 [ 2.73443223e-01  6.41666667e-01  6.60000000e-01  5.12589766e-01
   6.05000000e-01  4.63419913e-01  7.33333333e-01  7.60000000e-01
   5.86180732e-01  6.96428571e-01]
 [ 6.18181818e-01  8.00000000e-01  8.40000000e-01  6.82842712e-01
   7.79761905e-01  4.02497502e-01  7.08333333e-01  7.00000000e-01
   6.18750582e-01  6.64880952e-01]
 [ 5.36630037e-01  7.75000000e-01  7.60000000e-01  7.53414595e-01
   7.53333333e-01 -5.77922078e-02  4.83333333e-01  6.60000000e-01
   7.07106781e-02  4.14682540e-01]
 [ 4.87296037e-01  7.41666667e-01  7.80000000e-01  5.80806041e-01
   7.03214286e-01  4.29637030e-01  7.25000000e-01  7.00000000e-01
   6.46599760e-01  6.78095238e-01]
 [ 4.85680986e-01  7.50000000e-01  7.40000000e-01  7.29689562e-01
   7.31190476e-01  5.36130536e-01  7.75000000e-01  7.80000000e-01
   7.31129706e-01  7.61428571e-01]
 [ 3.88594739e-01  6.83333333e-01  7.40000000e-01  5.79962424e-01
   6.74444444e-01  3.40825841e-01  6.83333333e-01  6.80000000e-01
   5.94239424e-01  6.50476190e-01]
 [ 6.58116883e-01  8.37500000e-01  8.60000000e-01  7.41421356e-01
   8.09523810e-01  6.00482850e-01  8.20833333e-01  8.00000000e-01
   7.99381905e-01  7.89047619e-01]
 [ 9.09090909e-02  5.41666667e-01  6.60000000e-01  2.00000000e-01
   4.87103175e-01  1.24242424e-01  5.50000000e-01  6.60000000e-01
   3.27602088e-01  5.28769841e-01]
 [ 3.17266067e-01  6.58333333e-01  6.60000000e-01  6.08655219e-01
   6.41428571e-01  8.32500833e-04  5.00000000e-01  5.20000000e-01
   3.96276095e-01  4.81190476e-01]
 [ 2.92773893e-01  6.50000000e-01  6.80000000e-01  5.20190726e-01
   6.23690476e-01  5.18181818e-01  7.50000000e-01  8.20000000e-01
   5.82842712e-01  7.24206349e-01]
 [ 6.06060606e-01  8.04166667e-01  8.20000000e-01  7.84915307e-01
   7.97619048e-01  2.69072594e-01  6.37500000e-01  7.00000000e-01
   4.77925753e-01  6.06825397e-01]
 [ 3.72427572e-01  6.91666667e-01  7.00000000e-01  5.48636431e-01
   6.38571429e-01  2.93706294e-01  6.41666667e-01  6.40000000e-01
   6.27195160e-01  6.32380952e-01]
 [ 3.00699301e-02  5.20833333e-01  6.00000000e-01  2.27427369e-01
   4.58849206e-01  3.38727939e-01  6.83333333e-01  6.80000000e-01
   5.75889082e-01  6.39404762e-01]
 [ 1.37878788e-01  5.66666667e-01  6.80000000e-01  2.70710678e-01
   5.24801587e-01  2.97086247e-01  6.50000000e-01  6.80000000e-01
   5.03280528e-01  6.12301587e-01]
 [-5.71095571e-02  4.75000000e-01  5.00000000e-01  3.49480048e-01
   4.55238095e-01  2.55303030e-01  6.33333333e-01  7.20000000e-01
   3.85758924e-01  5.81349206e-01]
 [ 3.66083916e-01  6.83333333e-01  7.20000000e-01  5.25565417e-01
   6.41706349e-01  3.84848485e-01  6.83333333e-01  7.20000000e-01
   5.98312766e-01  6.75595238e-01]
 [            nan  6.47500000e-01  8.20000000e-01  2.00000000e-01
   5.48611111e-01  4.67948718e-01  7.41666667e-01  7.40000000e-01
   7.33624109e-01  7.31666667e-01]
 [ 1.18140193e-01  5.62500000e-01  6.40000000e-01  3.51516719e-01
   5.25634921e-01  2.21944722e-01  6.16666667e-01  6.00000000e-01
   5.87424589e-01  5.89523810e-01]
 [ 2.37121212e-01  6.16666667e-01  6.80000000e-01  4.56469602e-01
   5.95238095e-01  9.37229437e-02  5.50000000e-01  5.80000000e-01
   4.30096491e-01  5.20833333e-01]
 [ 0.00000000e+00  5.00000000e-01  7.40000000e-01  1.00000000e-01
   4.72222222e-01  1.85464535e-01  5.91666667e-01  5.80000000e-01
   4.96276095e-01  5.52619048e-01]
 [ 3.59723610e-01  6.83333333e-01  6.80000000e-01  6.01840384e-01
   6.54285714e-01  5.39918415e-01  7.62500000e-01  8.00000000e-01
   7.10691890e-01  7.64404762e-01]
 [ 2.46320346e-01  6.08333333e-01  6.40000000e-01  4.85337115e-01
   5.86309524e-01  2.47727273e-01  6.37500000e-01  7.60000000e-01
   3.85337115e-01  5.89285714e-01]
 [-3.52647353e-02  4.83333333e-01  4.40000000e-01  2.61859172e-01
   3.89285714e-01  5.32534133e-01  7.66666667e-01  7.80000000e-01
   6.96276095e-01  7.44880952e-01]
 [ 4.67365967e-01  7.41666667e-01  7.40000000e-01  7.12779364e-01
   7.29523810e-01  5.17732268e-01  7.66666667e-01  7.60000000e-01
   7.31129706e-01  7.49523810e-01]
 [ 1.80586081e-01  6.00000000e-01  6.00000000e-01  3.70324793e-01
   5.12738095e-01  3.58058608e-01  6.83333333e-01  6.80000000e-01
   6.53414595e-01  6.70000000e-01]
 [ 7.18181818e-01  8.50000000e-01  9.00000000e-01  7.82842712e-01
   8.49206349e-01  5.59340659e-01  7.91666667e-01  7.80000000e-01
   7.25158488e-01  7.55833333e-01]
 [ 1.07575758e-01  5.50000000e-01  6.80000000e-01  2.69867061e-01
   5.14880952e-01  3.51515152e-01  6.66666667e-01  7.40000000e-01
   4.98312766e-01  6.40873016e-01]
 [ 2.28105228e-01  6.25000000e-01  6.20000000e-01  5.74448938e-01
   6.00238095e-01  1.83483183e-01  5.91666667e-01  5.80000000e-01
   5.53604193e-01  5.69523810e-01]
 [ 1.00000000e+00  1.00000000e+00  1.00000000e+00  1.00000000e+00
   1.00000000e+00  3.71386946e-01  6.91666667e-01  7.40000000e-01
   5.38119260e-01  6.55595238e-01]]
KNN mean:
[0.32810437 0.66408333 0.70733333 0.51168601 0.63052646 0.33536991
 0.67138889 0.70333333 0.55343209 0.6417328 ]
---------------------------
---------------------------
DT performance:
[[ 0.28496503  0.6         0.64        0.54863643  0.58630952  0.32442704
   0.675       0.72        0.49873457  0.60765873]
 [ 0.28929404  0.65        0.66        0.62019073  0.63761905  0.38719614
   0.72916667  0.74        0.69645081  0.70238095]
 [ 0.41433566  0.725       0.72        0.67051439  0.70357143  0.4459374
   0.66666667  0.68        0.62412527  0.65214286]
 [ 0.10514486  0.50833333  0.52        0.43710092  0.49261905  0.0043055
   0.56666667  0.66        0.30165079  0.51587302]
 [ 0.62286047  0.8         0.8         0.74948005  0.77035714  0.45561106
   0.71666667  0.7         0.64863643  0.6797619 ]
 [ 0.22169497  0.63333333  0.64        0.51114962  0.62452381  0.31668332
   0.71666667  0.72        0.64948005  0.6997619 ]
 [ 0.43554779  0.68333333  0.74        0.59585429  0.66718254  0.42074592
   0.65        0.62        0.49030488  0.61333333]
 [ 0.81818182  0.8375      0.88        0.8280239   0.82539683  0.42214452
   0.69583333  0.74        0.6391376   0.68238095]
 [ 0.23556444  0.625       0.68        0.48080604  0.58980159  0.29335664
   0.6875      0.74        0.52514361  0.66154762]
 [-0.04405594  0.50833333  0.52        0.32247449  0.48666667  0.19978355
   0.58333333  0.58        0.40865522  0.53559524]
 [ 0.44861805  0.65        0.68        0.50925175  0.62916667  0.42913753
   0.65833333  0.68        0.66452829  0.63178571]
 [ 0.74184149  0.8625      0.86        0.88575892  0.84309524  0.34050117
   0.71666667  0.74        0.61917239  0.68238095]
 [ 0.30710956  0.7         0.7         0.68042016  0.69119048  0.11613387
   0.575       0.58        0.56101556  0.54833333]
 [ 0.12928738  0.6375      0.7         0.49525776  0.63146825  0.31843157
   0.65        0.64        0.62968956  0.61166667]
 [-0.03982684  0.5125      0.56        0.24391576  0.44047619  0.08894439
   0.53333333  0.58        0.33854107  0.50099206]
 [ 0.38426573  0.65833333  0.68        0.64719629  0.65047619  0.44259907
   0.70833333  0.74        0.69711971  0.69130952]
 [ 0.83275058  0.94166667  0.94        0.88080604  0.93833333  0.51996337
   0.73333333  0.72        0.65897888  0.69809524]
 [        nan  0.65        0.74        0.45980762  0.59920635  0.26888112
   0.625       0.64        0.55957541  0.60369048]
 [ 0.06790709  0.52916667  0.6         0.26389584  0.47075397  0.19172494
   0.56666667  0.58        0.50721508  0.54916667]
 [ 0.3522311   0.74583333  0.76        0.62370346  0.71428571  0.03517316
   0.54166667  0.58        0.40165079  0.51488095]
 [ 0.18896104  0.4875      0.66        0.54641016  0.47222222  0.30667666
   0.70833333  0.7         0.65257098  0.68571429]
 [ 0.22032967  0.65        0.64        0.4649501   0.60107143  0.42647353
   0.77916667  0.78        0.62180559  0.74785714]
 [ 0.07633347  0.58333333  0.6         0.24711971  0.53142857  0.11814019
   0.525       0.62        0.32658375  0.46281746]
 [ 0.13769564  0.56666667  0.56        0.47792575  0.54619048  0.35656011
   0.69166667  0.7         0.68802112  0.67857143]
 [ 0.50164835  0.71666667  0.72        0.55197445  0.69035714  0.3038628
   0.60833333  0.62        0.55957541  0.59595238]
 [ 0.21085581  0.60833333  0.6         0.59423942  0.5747619   0.15699301
   0.51666667  0.56        0.33794454  0.46809524]
 [ 0.53136863  0.825       0.86        0.74265033  0.8015873   0.42147852
   0.68333333  0.68        0.59030488  0.63559524]
 [-0.02112055  0.44583333  0.52        0.22247449  0.41321429  0.4048951
   0.725       0.78        0.5222274   0.6990873 ]
 [ 0.46312021  0.70833333  0.7         0.6649501   0.68619048  0.06808192
   0.51666667  0.54        0.49030488  0.49357143]
 [ 0.78671329  0.825       0.84        0.88080604  0.80440476  0.46720779
   0.75        0.8         0.58284271  0.7172619 ]]
DT mean:
[0.33460768 0.6625     0.69066667 0.5615915  0.63713095 0.30173503
 0.65       0.672      0.54973291 0.61890873]
---------------------------
---------------------------
RF performance:
[[ 0.39675325  0.775       0.78        0.72635154  0.7597619   0.11948052
   0.63333333  0.72        0.37320508  0.58484127]
 [ 0.31317016  0.66666667  0.68        0.60925175  0.65261905  0.40957376
   0.64583333  0.66        0.59525776  0.59821429]
 [ 0.41714952  0.71666667  0.74        0.55092019  0.68916667  0.18921079
   0.64166667  0.64        0.59442902  0.58833333]
 [ 0.47868798  0.6         0.62        0.70184038  0.58321429 -0.01136364
   0.48333333  0.64        0.18660254  0.43948413]
 [ 0.6048951   0.775       0.8         0.6909014   0.76059524  0.41305361
   0.775       0.76        0.59567957  0.73380952]
 [ 0.25747586  0.7         0.7         0.52412527  0.67380952  0.47111222
   0.75833333  0.76        0.73112971  0.74142857]
 [ 0.38311688  0.6625      0.72        0.59293808  0.64503968  0.41958042
   0.69166667  0.68        0.5649501   0.65642857]
 [ 0.88311688  0.8875      0.9         0.81213203  0.88095238  0.37379287
   0.72916667  0.76        0.57399121  0.72702381]
 [ 0.36818182  0.7         0.74        0.45689141  0.66321429  0.1229021
   0.54166667  0.6         0.36783039  0.51738095]
 [ 0.04020979  0.55833333  0.58        0.33938469  0.5352381  -0.06247086
   0.55        0.56        0.44247561  0.52369048]
 [ 0.46620047  0.65833333  0.68        0.69005779  0.64107143  0.46381119
   0.80416667  0.84        0.64614203  0.77051587]
 [ 0.60606061  0.75416667  0.78        0.68038423  0.72916667  0.32191142
   0.61666667  0.66        0.5222274   0.57607143]
 [ 0.24350649  0.725       0.72        0.62431487  0.70404762  0.29818515
   0.65833333  0.68        0.55794567  0.61261905]
 [-0.08225108  0.47083333  0.56        0.34247561  0.45884921  0.12634033
   0.69166667  0.68        0.51815406  0.67452381]
 [ 0.22554113  0.4125      0.56        0.29915638  0.38047619  0.24282384
   0.53333333  0.58        0.54905824  0.49837302]
 [ 0.11445221  0.60833333  0.62        0.42019073  0.59095238  0.28863636
   0.725       0.76        0.60122898  0.7002381 ]
 [ 0.91666667  0.88333333  0.88        0.92844571  0.87285714  0.44370629
   0.7         0.72        0.69293808  0.65083333]
 [        nan  0.705       0.84        0.4         0.65277778  0.31701632
   0.64166667  0.66        0.52371834  0.62666667]
 [ 0.21341991  0.65416667  0.7         0.42307101  0.61011905  0.3997669
   0.68333333  0.7         0.65092019  0.67642857]
 [ 0.49199134  0.68333333  0.72        0.61462644  0.63988095  0.12832168
   0.57083333  0.6         0.41069189  0.50297619]
 [-0.08636364  0.475       0.64        0.1         0.44642857  0.21611722
   0.64166667  0.62        0.52968956  0.58666667]
 [ 0.24432234  0.675       0.66        0.61671391  0.63642857  0.44393939
   0.75416667  0.76        0.66884873  0.72321429]
 [ 0.21666667  0.66666667  0.66        0.32307101  0.63595238  0.28939394
   0.56666667  0.7         0.39873457  0.50730159]
 [ 0.15875791  0.625       0.62        0.57792575  0.60285714  0.52414252
   0.81666667  0.82        0.71337589  0.80309524]
 [ 0.19045954  0.69166667  0.68        0.4987705   0.66952381  0.3988345
   0.725       0.72        0.79586917  0.70952381]
 [ 0.29095904  0.61666667  0.62        0.50721508  0.57690476  0.26353646
   0.625       0.64        0.45341459  0.60452381]
 [ 0.45681818  0.7875      0.82        0.65689141  0.74503968  0.49708625
   0.71666667  0.72        0.56842692  0.68988095]
 [ 0.12878788  0.61666667  0.64        0.14082483  0.58880952  0.34312354
   0.6875      0.68        0.78080604  0.66142857]
 [ 0.47169497  0.7         0.72        0.75504434  0.67678571  0.06483516
   0.6         0.6         0.40721508  0.57809524]
 [ 0.71095571  0.88333333  0.88        0.82307101  0.87071429  0.62727273
   0.79583333  0.78        0.65355339  0.75595238]]
RF mean:
[0.34901392 0.67780556 0.70866667 0.54756625 0.6524418  0.3047891
 0.66680556 0.69       0.55561699 0.63398545]
---------------------------
---------------------------
SVM performance:
[[ 0.          0.5         0.52        0.          0.33928571  0.
   0.5         0.76        0.          0.43055556]
 [ 0.          0.5         0.58        0.          0.36607143  0.
   0.5         0.62        0.          0.38194444]
 [ 0.          0.5         0.6         0.          0.375      -0.01969697
   0.49166667  0.5         0.05773503  0.35119048]
 [ 0.          0.5         0.54        0.          0.34821429  0.
   0.5         0.74        0.          0.42361111]
 [ 0.          0.5         0.6         0.          0.375       0.51996337
   0.76666667  0.74        0.69567957  0.72357143]
 [ 0.          0.5         0.54        0.          0.34821429  0.25584416
   0.625       0.62        0.36986706  0.53869048]
 [ 0.          0.5         0.64        0.          0.38888889  0.
   0.5         0.4         0.          0.28571429]
 [ 0.          0.5         0.68        0.          0.40277778  0.
   0.5         0.62        0.          0.38194444]
 [ 0.          0.5         0.7         0.          0.40972222  0.
   0.5         0.66        0.          0.39583333]
 [ 0.          0.5         0.52        0.          0.33928571  0.
   0.5         0.54        0.          0.34821429]
 [ 0.          0.5         0.6         0.          0.375       0.
   0.5         0.64        0.          0.38888889]
 [ 0.          0.5         0.62        0.          0.38194444  0.
   0.5         0.64        0.          0.38888889]
 [ 0.          0.5         0.58        0.          0.36607143  0.
   0.5         0.58        0.          0.36607143]
 [ 0.          0.5         0.68        0.          0.40277778  0.
   0.5         0.52        0.          0.33928571]
 [ 0.          0.5         0.7         0.          0.40972222  0.
   0.5         0.62        0.          0.38194444]
 [ 0.          0.5         0.6         0.          0.375       0.
   0.5         0.66        0.          0.39583333]
 [ 0.          0.5         0.62        0.          0.38194444  0.
   0.5         0.6         0.          0.375     ]
 [        nan  0.7         0.88        0.4         0.66666667  0.
   0.5         0.6         0.          0.375     ]
 [ 0.          0.5         0.68        0.          0.40277778  0.
   0.5         0.54        0.          0.34821429]
 [ 0.          0.5         0.68        0.          0.40277778  0.
   0.5         0.64        0.          0.38888889]
 [ 0.          0.5         0.8         0.          0.44444444  0.
   0.5         0.54        0.          0.34821429]
 [ 0.          0.5         0.52        0.          0.33928571  0.
   0.5         0.66        0.          0.39583333]
 [ 0.          0.5         0.62        0.          0.38194444  0.
   0.5         0.72        0.          0.41666667]
 [ 0.          0.5         0.54        0.          0.34821429  0.
   0.5         0.54        0.          0.34821429]
 [ 0.          0.5         0.56        0.          0.35714286  0.
   0.5         0.52        0.          0.33928571]
 [ 0.          0.5         0.54        0.          0.34821429  0.
   0.5         0.56        0.          0.35714286]
 [ 0.          0.5         0.7         0.          0.40972222  0.01666667
   0.50833333  0.52        0.05773503  0.36011905]
 [ 0.          0.5         0.66        0.          0.39583333  0.
   0.5         0.62        0.          0.38194444]
 [ 0.          0.5         0.58        0.          0.36607143  0.
   0.5         0.52        0.          0.33928571]
 [ 0.          0.5         0.6         0.          0.375       0.
   0.5         0.66        0.          0.39583333]]
SVM mean:
[0.         0.50666667 0.62266667 0.01333333 0.38743386 0.02575924
 0.51305556 0.60333333 0.03936722 0.38972751]
---------------------------
---------------------------
GBM performance:
[[ 0.3458042   0.675       0.7         0.50387706  0.65940476  0.34123377
   0.7         0.76        0.49873457  0.63293651]
 [ 0.17587413  0.61666667  0.64        0.47339468  0.57809524  0.35151515
   0.6625      0.68        0.49729443  0.60666667]
 [ 0.41398601  0.70833333  0.74        0.57543135  0.68321429  0.32997003
   0.625       0.6         0.54410536  0.56619048]
 [ 0.11305361  0.55833333  0.56        0.51277936  0.54142857 -0.08636364
   0.47083333  0.7         0.          0.4077381 ]
 [ 0.55734266  0.775       0.8         0.72779169  0.75845238  0.56809857
   0.80833333  0.8         0.7649501   0.78952381]
 [ 0.55128205  0.75833333  0.76        0.73794454  0.75333333  0.39968365
   0.70833333  0.7         0.63112971  0.68142857]
 [ 0.20145688  0.6375      0.72        0.40925175  0.60599206  0.33374958
   0.66666667  0.66        0.58474059  0.63642857]
 [ 0.71818182  0.8625      0.9         0.76944525  0.84920635  0.39772727
   0.6875      0.74        0.59746915  0.69345238]
 [ 0.15681818  0.60416667  0.72        0.27071068  0.5734127  -0.05
   0.475       0.6         0.14142136  0.43253968]
 [-0.18306693  0.4         0.4         0.37176494  0.37690476  0.12400932
   0.575       0.6         0.39771624  0.5322619 ]
 [ 0.32156177  0.64166667  0.68        0.51685271  0.60833333  0.37668998
   0.69583333  0.74        0.59585429  0.67444444]
 [ 0.73484848  0.87083333  0.88        0.8564696   0.86309524  0.42727273
   0.675       0.72        0.50967355  0.64880952]
 [ 0.43664669  0.75        0.74        0.7247218   0.72404762  0.25770896
   0.60833333  0.64        0.47792575  0.56928571]
 [-0.09772727  0.47916667  0.64        0.05773503  0.4077381   0.23484848
   0.63333333  0.64        0.54410536  0.6197619 ]
 [-0.07954545  0.47916667  0.62        0.1         0.42460317  0.09009324
   0.575       0.64        0.28020951  0.52218254]
 [ 0.17039627  0.58333333  0.62        0.45007658  0.55988095  0.34848485
   0.66666667  0.74        0.54057774  0.66666667]
 [ 0.78787879  0.89166667  0.9         0.88618073  0.89285714  0.30559441
   0.65        0.68        0.52307101  0.62702381]
 [        nan  0.685       0.82        0.2         0.62896825  0.17913753
   0.59166667  0.62        0.44103547  0.57011905]
 [ 0.22575758  0.62083333  0.74        0.31504825  0.55654762  0.43729604
   0.69166667  0.72        0.57032479  0.66452381]
 [ 0.375       0.67083333  0.72        0.58533712  0.63690476  0.12532468
   0.55        0.62        0.34391576  0.49503968]
 [ 0.01818182  0.525       0.78        0.08660254  0.46924603  0.33591409
   0.65        0.66        0.67111092  0.63261905]
 [ 0.26721612  0.6         0.58        0.42805982  0.5425      0.57272727
   0.7875      0.84        0.66944525  0.76289683]
 [ 0.07517483  0.53333333  0.6         0.35151672  0.48595238  0.09675325
   0.53333333  0.66        0.17071068  0.46329365]
 [ 0.17529138  0.59166667  0.6         0.43854107  0.56452381  0.34082584
   0.69166667  0.7         0.60637146  0.67214286]
 [ 0.35562771  0.69166667  0.72        0.55604779  0.6675      0.3487346
   0.68333333  0.68        0.63525385  0.66142857]
 [ 0.40857476  0.71666667  0.7         0.65197445  0.66535714  0.06889777
   0.56666667  0.6         0.29174502  0.5152381 ]
 [ 0.67272727  0.825       0.86        0.75604779  0.8015873   0.33814519
   0.69166667  0.7         0.56639025  0.65511905]
 [ 0.11946387  0.575       0.68        0.19855986  0.5134127   0.45244755
   0.77916667  0.8         0.62180559  0.75083333]
 [ 0.56550117  0.78333333  0.8         0.72019073  0.76654762  0.20654346
   0.60833333  0.62        0.52412527  0.58666667]
 [ 0.82517483  0.84166667  0.86        0.85689141  0.82821429  0.56363636
   0.7875      0.84        0.61213203  0.74801587]]
GBM mean:
[0.32443045 0.66505556 0.716      0.50297484 0.63290873 0.29389
 0.64986111 0.69       0.4951115  0.61617593]
---------------------------
---------------------------
BDDAE performance:
[[ 1.11022302e-17  5.00000000e-01  5.00000000e-01  4.33525483e-01
   4.75651016e-01  9.19654030e-02  5.37500000e-01  6.80000000e-01
   3.81374430e-01  5.33202973e-01]
 [ 9.95304695e-02  5.54166667e-01  5.70000000e-01  4.95720122e-01
   5.36774892e-01  4.18498965e-01  7.20833333e-01  7.00000000e-01
   6.97658578e-01  6.94187757e-01]
 [ 1.64269716e-01  5.83333333e-01  6.20000000e-01  4.72416727e-01
   5.58734599e-01 -1.20000000e-01  4.40000000e-01  4.40000000e-01
   3.68138238e-01  4.13275613e-01]
 [-4.00000000e-02  4.80000000e-01  4.80000000e-01  3.96037484e-01
   4.53803141e-01  1.86234375e-01  6.00000000e-01  6.80000000e-01
   4.29839343e-01  5.61002209e-01]
 [ 1.09337563e-01  5.54166667e-01  5.60000000e-01  5.25404146e-01
   5.39108392e-01 -6.00000000e-02  4.70000000e-01  4.70000000e-01
   3.05052167e-01  4.13247586e-01]
 [ 2.80000000e-01  6.40000000e-01  6.40000000e-01  6.14952155e-01
   6.28264791e-01 -2.60000000e-01  3.70000000e-01  3.70000000e-01
   3.13948942e-01  3.49966700e-01]
 [ 8.04602805e-02  5.37500000e-01  5.60000000e-01  4.67572582e-01
   5.19235209e-01  1.80000000e-01  5.90000000e-01  5.90000000e-01
   5.15495555e-01  5.53788989e-01]
 [ 3.74398272e-01  6.78571429e-01  7.50000000e-01  6.18727658e-01
   6.82701465e-01  9.67428948e-02  5.50000000e-01  5.80000000e-01
   4.42763047e-01  5.34391997e-01]
 [ 3.38139466e-01  6.52380952e-01  7.80000000e-01  4.59985251e-01
   6.34719888e-01  2.90771045e-01  6.26190476e-01  7.70000000e-01
   3.88182660e-01  6.02563025e-01]
 [-2.80000000e-01  3.60000000e-01  3.60000000e-01  2.77060133e-01
   3.36017039e-01  4.80000000e-01  7.40000000e-01  7.40000000e-01
   7.18154723e-01  7.30446498e-01]
 [-2.81688239e-01  3.62500000e-01  4.20000000e-01  1.01411300e-01
   3.16016484e-01 -3.64012799e-02  4.79166667e-01  5.40000000e-01
   2.82111922e-01  4.39549895e-01]
 [-4.08767159e-02  4.79166667e-01  4.90000000e-01  4.27398525e-01
   4.63401876e-01  2.48915215e-01  6.25000000e-01  6.30000000e-01
   5.92502034e-01  6.07762793e-01]
 [ 3.51994162e-01  6.87500000e-01  6.60000000e-01  6.47251478e-01
   6.48337773e-01  1.68258658e-01  5.83333333e-01  5.70000000e-01
   5.36995154e-01  5.49979465e-01]
 [ 1.89033976e-01  5.97619048e-01  6.50000000e-01  4.63049457e-01
   5.58832418e-01  3.00000000e-01  6.50000000e-01  6.50000000e-01
   6.36917337e-01  6.44204684e-01]
 [-2.73992170e-02  4.80952381e-01  5.40000000e-01  3.84713363e-01
   4.64235209e-01  4.81114296e-02  5.25000000e-01  5.30000000e-01
   4.67299746e-01  5.03161006e-01]
 [ 1.54516578e-01  5.83333333e-01  5.80000000e-01  5.00701610e-01
   5.44439172e-01 -5.07947707e-02  4.80952381e-01  5.80000000e-01
   2.26910505e-01  4.37146628e-01]
 [ 3.95497618e-01  6.95833333e-01  7.20000000e-01  6.47076311e-01
   6.90851648e-01  5.51911856e-03  5.00000000e-01  5.50000000e-01
   3.25297087e-01  4.59395604e-01]
 [ 1.20175250e-01  6.11111111e-01  7.80000000e-01  3.58403177e-01
   5.46053062e-01  7.25071225e-02  5.37500000e-01  5.30000000e-01
   5.23787572e-01  5.22474747e-01]
 [ 1.42172538e-01  5.85714286e-01  6.20000000e-01  5.20896536e-01
   5.57763348e-01  6.00000000e-02  5.30000000e-01  5.30000000e-01
   4.66278514e-01  5.06724942e-01]
 [ 2.23633337e-01  6.19047619e-01  6.40000000e-01  6.00611637e-01
   6.00305944e-01  2.95078110e-02  5.12500000e-01  5.70000000e-01
   3.38177939e-01  4.77168942e-01]
 [ 7.16093117e-02  5.50000000e-01  7.00000000e-01  3.43396948e-01
   5.29779412e-01  3.00000000e-01  6.50000000e-01  6.50000000e-01
   6.13179863e-01  6.32572150e-01]
 [ 2.00000000e-01  6.00000000e-01  6.00000000e-01  5.31262879e-01
   5.74538240e-01  1.43946695e-01  5.69047619e-01  6.90000000e-01
   3.53102447e-01  5.40219242e-01]
 [-1.80287828e-01  4.08333333e-01  4.30000000e-01  3.37944541e-01
   3.97414807e-01  3.90084546e-01  6.78571429e-01  7.90000000e-01
   5.34216919e-01  6.69221073e-01]
 [ 1.00000000e-01  5.50000000e-01  5.50000000e-01  5.31701150e-01
   5.41616162e-01  2.00000000e-01  6.00000000e-01  6.00000000e-01
   5.75692001e-01  5.88337773e-01]
 [ 2.50230776e-01  6.29166667e-01  6.30000000e-01  5.94567213e-01
   6.07524420e-01  2.40000000e-01  6.20000000e-01  6.20000000e-01
   6.04749792e-01  6.13005051e-01]
 [ 1.00000000e-01  5.50000000e-01  5.50000000e-01  4.33910301e-01
   5.10346320e-01 -4.50263505e-02  4.79166667e-01  5.20000000e-01
   3.37810066e-01  4.57278832e-01]
 [ 4.62724202e-01  7.30952381e-01  7.70000000e-01  7.11968823e-01
   7.27811355e-01  2.80000000e-01  6.40000000e-01  6.40000000e-01
   5.93656401e-01  6.24899267e-01]
 [-1.98320808e-01  4.00000000e-01  4.80000000e-01  2.04739277e-01
   3.74466922e-01  3.75006274e-01  6.83333333e-01  7.20000000e-01
   5.88785450e-01  6.60301365e-01]
 [ 2.22525253e-01  6.20833333e-01  6.20000000e-01  5.76758471e-01
   6.01551227e-01  4.00000000e-02  5.20000000e-01  5.20000000e-01
   4.68843762e-01  4.95016095e-01]
 [ 2.13087275e-01  6.08333333e-01  6.30000000e-01  5.52342476e-01
   5.95804473e-01  2.39508974e-02  5.14285714e-01  5.60000000e-01
   4.23598203e-01  4.92156455e-01]]
BDDAE mean:
[0.11982544 0.5630172  0.596      0.47438357 0.54053669 0.13659327
 0.5674127  0.60033333 0.46835068 0.54355498]
---------------------------
---------------------------
DUMMY performance:
[[0.         0.5        0.52       0.         0.33928571 0.
  0.5        0.76       0.         0.43055556]
 [0.         0.5        0.58       0.         0.36607143 0.
  0.5        0.62       0.         0.38194444]
 [0.         0.5        0.6        0.         0.375      0.
  0.5        0.52       0.         0.33928571]
 [0.         0.5        0.54       0.         0.34821429 0.
  0.5        0.74       0.         0.42361111]
 [0.         0.5        0.6        0.         0.375      0.
  0.5        0.4        0.         0.28571429]
 [0.         0.5        0.54       0.         0.34821429 0.
  0.5        0.52       0.         0.33928571]
 [0.         0.5        0.64       0.         0.38888889 0.
  0.5        0.4        0.         0.28571429]
 [0.         0.5        0.68       0.         0.40277778 0.
  0.5        0.62       0.         0.38194444]
 [0.         0.5        0.7        0.         0.40972222 0.
  0.5        0.66       0.         0.39583333]
 [0.         0.5        0.52       0.         0.33928571 0.
  0.5        0.54       0.         0.34821429]
 [0.         0.5        0.6        0.         0.375      0.
  0.5        0.64       0.         0.38888889]
 [0.         0.5        0.62       0.         0.38194444 0.
  0.5        0.64       0.         0.38888889]
 [0.         0.5        0.58       0.         0.36607143 0.
  0.5        0.58       0.         0.36607143]
 [0.         0.5        0.68       0.         0.40277778 0.
  0.5        0.52       0.         0.33928571]
 [0.         0.5        0.7        0.         0.40972222 0.
  0.5        0.62       0.         0.38194444]
 [0.         0.5        0.6        0.         0.375      0.
  0.5        0.66       0.         0.39583333]
 [0.         0.5        0.62       0.         0.38194444 0.
  0.5        0.6        0.         0.375     ]
 [       nan 0.7        0.88       0.4        0.66666667 0.
  0.5        0.6        0.         0.375     ]
 [0.         0.5        0.68       0.         0.40277778 0.
  0.5        0.54       0.         0.34821429]
 [0.         0.5        0.68       0.         0.40277778 0.
  0.5        0.64       0.         0.38888889]
 [0.         0.5        0.8        0.         0.44444444 0.
  0.5        0.54       0.         0.34821429]
 [0.         0.5        0.52       0.         0.33928571 0.
  0.5        0.66       0.         0.39583333]
 [0.         0.5        0.62       0.         0.38194444 0.
  0.5        0.72       0.         0.41666667]
 [0.         0.5        0.54       0.         0.34821429 0.
  0.5        0.54       0.         0.34821429]
 [0.         0.5        0.56       0.         0.35714286 0.
  0.5        0.52       0.         0.33928571]
 [0.         0.5        0.54       0.         0.34821429 0.
  0.5        0.56       0.         0.35714286]
 [0.         0.5        0.7        0.         0.40972222 0.
  0.5        0.52       0.         0.33928571]
 [0.         0.5        0.66       0.         0.39583333 0.
  0.5        0.62       0.         0.38194444]
 [0.         0.5        0.58       0.         0.36607143 0.
  0.5        0.52       0.         0.33928571]
 [0.         0.5        0.6        0.         0.375      0.
  0.5        0.66       0.         0.39583333]]
DUMMY mean:
[0.         0.50666667 0.62266667 0.01333333 0.38743386 0.
 0.5        0.58933333 0.         0.36739418]
---------------------------
Current folder: C:\Users\Javier\Dropbox\c_sldl_1_2_21
-------------------------------------
----- RESULTS from .csv files ------
-------------------------------------
---------------------------
ALG Means: 
-rows: alg : KNN = 0; DT = 1; RF = 2; SVM = 3; GBM = 4; BDDAE = 5; DUMMY = 5
columns:
'val_cohen','val_uar', 'val_acc', 'val_gm',  'val_f1',  'aro_cohen','aro_uar', 'aro_acc', 'aro_gm',  'aro_f1'
-------------------------------------------------------------
  v_c   v_u   v_a   v_g   v_f1  a_c   a_u   a_a   a_g   a_f1
[[0.328 0.665 0.703 0.522 0.633 0.331 0.669 0.702 0.547 0.639]
 [0.335 0.663 0.689 0.565 0.638 0.303 0.651 0.673 0.549 0.619]
 [0.349 0.677 0.704 0.553 0.652 0.304 0.668 0.691 0.557 0.634]
 [0.    0.5   0.614 0.    0.378 0.027 0.514 0.603 0.041 0.39 ]
 [0.324 0.664 0.712 0.513 0.633 0.298 0.652 0.692 0.497 0.618]
 [0.12  0.563 0.596 0.474 0.541 0.137 0.567 0.6   0.468 0.544]
 [0.    0.5   0.614 0.    0.378 0.    0.5   0.589 0.    0.367]]
-------------------------------------------------------------
Standard Deviation of each metric:
[[0.243 0.121 0.111 0.208 0.135 0.166 0.084 0.076 0.152 0.09 ]
 [0.25  0.122 0.111 0.187 0.128 0.145 0.078 0.073 0.118 0.082]
 [0.241 0.112 0.09  0.194 0.115 0.165 0.086 0.07  0.135 0.093]
 [0.    0.    0.068 0.    0.026 0.104 0.053 0.081 0.141 0.076]
 [0.267 0.126 0.111 0.231 0.139 0.166 0.084 0.069 0.172 0.095]
 [0.187 0.094 0.106 0.134 0.098 0.171 0.085 0.095 0.128 0.091]
 [0.    0.    0.068 0.    0.026 0.    0.    0.085 0.    0.035]]
-------------------------------------------------------------
std_dev/mean [percentage]:
[[ 74.  18.  16.  40.  21.  50.  13.  11.  28.  14.]
 [ 75.  18.  16.  33.  20.  48.  12.  11.  21.  13.]
 [ 69.  17.  13.  35.  18.  54.  13.  10.  24.  15.]
 [  0.   0.  11.   0.   7. 390.  10.  13. 346.  19.]
 [ 82.  19.  16.  45.  22.  56.  13.  10.  35.  15.]
 [156.  17.  18.  28.  18. 125.  15.  16.  27.  17.]
 [  0.   0.  11.   0.   7.   0.   0.  14.   0.  10.]]
-------------------------------------
Current folder: C:\Users\Javier\Dropbox\c_sldl_1_2_21
-------------------------------------
----- RESULTS ------
-------------------------------------
Window size (sec):  30.0
step (sec):  22.496
overlap:  True
perc. of overlap:  25.013333333333332
overlap duration (sec):  7.504
Number of windows / instances:  50
Elapsed time: 1127.7505688826243 minutes
Elapsed time: 18.795842814710404 hours
