2024-03-10 15:49:02.878825: I tensorflow/core/util/port.cc:113] oneDNN custom operations are on. You may see slightly different numerical results due to floating-point round-off errors from different computation orders. To turn them off, set the environment variable `TF_ENABLE_ONEDNN_OPTS=0`.
2024-03-10 15:49:06.074911: I tensorflow/core/util/port.cc:113] oneDNN custom operations are on. You may see slightly different numerical results due to floating-point round-off errors from different computation orders. To turn them off, set the environment variable `TF_ENABLE_ONEDNN_OPTS=0`.
2024-03-10 15:49:13.999640: I tensorflow/core/platform/cpu_feature_guard.cc:210] This TensorFlow binary is optimized to use available CPU instructions in performance-critical operations.
To enable the following instructions: AVX2 FMA, in other operations, rebuild TensorFlow with the appropriate compiler flags.
    
    
-------------------------------
participant:  1
-------------------------------
    
    
participant:  1
corriendo en PC gamer:
Window size (sec):  5.0
step (sec):  2.5
overlap:  True
perc. of overlap:  50.0
Nearest multiple of 16 to 5000 is: 4992
Nearest multiple of 16 to 2500 is: 2496
['gsr_chunks', 'ppg_chunks', 'val_chunks', 'aro_chunks', 'time_chunks', 'tag_chunks', 'video']
C:\Users\Javier\Dropbox\c_sldl_3_1_6\functions.py:880: FutureWarning: ChainedAssignmentError: behaviour will change in pandas 3.0!

  combined_df_copy[labels[label]].iloc[index] = combined_df_copy[labels[label]].iloc[index].apply(map_labels_bipartite, args=(number_thresholds, threshold, L, H))
----- Extracting features...
Class Imbalance test (arousal)....
Multiclass distribution
Class=1, n=324 (65.191%)
Class=0, n=173 (34.809%)
Class Imbalance test (valence)....
Multiclass distribution
Class=0, n=192 (38.632%)
Class=1, n=305 (61.368%)
------------- Evaluating model --------------
------------- Evaluating model --------------
------------- Evaluating model --------------
------------- Evaluating model --------------
------------- Evaluating model --------------
arousal and valece = ok
------------- Evaluating model --------------
-------------------------------------
-------------------------------------
participant:  30
-------------------------------------
----- RESULTS ------
-------------------------------------
Window size (sec):  4.992
step (sec):  2.496
overlap:  True
perc. of overlap:  50.0
Number of windows / instances:  497
-rows: alg : KNN = 0; DT = 1; RF = 2; SVM = 3; GBM = 4; BDDAE = 5; DUMMY = 5
columns:
'val_cohen','val_uar', 'val_acc', 'val_gm',  'val_f1',  'aro_cohen','aro_uar', 'aro_acc', 'aro_gm',  'aro_f1'
-------------------------------------------------------------
  v_c   v_u   v_a   v_g   v_f1  a_c   a_u   a_a   a_g   a_f1
[[0.378 0.688 0.708 0.677 0.687 0.294 0.647 0.682 0.629 0.644]
 [0.452 0.713 0.729 0.715 0.713 0.359 0.684 0.708 0.693 0.681]
 [0.406 0.717 0.741 0.724 0.719 0.33  0.703 0.728 0.707 0.698]
 [0.    0.5   0.614 0.    0.38  0.    0.5   0.652 0.    0.395]
 [0.325 0.646 0.718 0.549 0.633 0.09  0.536 0.672 0.256 0.473]
 [0.    0.    0.    0.    0.    0.    0.    0.    0.    0.   ]
 [0.    0.5   0.614 0.    0.38  0.    0.5   0.652 0.    0.395]]
participant performance loaded
    
    
-------------------------------
LAST participant's saved data: 
30
-------------------------------
    
    
---------------------------
KNN performance:
[[0.355236   0.6773935  0.6802449  0.67137811 0.67519035 0.39426957
  0.68312543 0.78493878 0.64647757 0.69471827]
 [0.24776604 0.62469596 0.6235102  0.62319972 0.62245518 0.34419445
  0.66737691 0.69816327 0.64817152 0.66868774]
 [0.26566705 0.62718542 0.66204082 0.60001857 0.62771952 0.12983074
  0.56494872 0.56379592 0.55467386 0.5592729 ]
 [0.52643622 0.74749332 0.80644898 0.72537106 0.76080731 0.31101164
  0.65462644 0.6702449  0.64776213 0.65464874]
 [0.28636656 0.63081758 0.72816327 0.56552419 0.63379556 0.29048362
  0.63867472 0.71591837 0.58814895 0.6397813 ]
 [       nan        nan        nan        nan        nan        nan
         nan        nan        nan        nan]
 [0.06766634 0.53272637 0.56555102 0.50051445 0.5277433  0.37450598
  0.68002874 0.71212245 0.65703616 0.68282837]
 [0.18518904 0.58394051 0.68195918 0.50414461 0.58121411 0.1857512
  0.59174873 0.62563265 0.56572984 0.5889384 ]
 [0.57388699 0.78688424 0.79269388 0.78311907 0.78582784 0.33561839
  0.66515599 0.684      0.65448763 0.66605757]
 [0.03211901 0.51285299 0.82693878 0.15610252 0.49837869 0.38211864
  0.69261905 0.69808163 0.68882461 0.68908644]
 [0.11947015 0.55451667 0.64004082 0.4758495  0.54827043 0.27948098
  0.63233794 0.68391837 0.59865207 0.63444183]
 [0.11447547 0.54637314 0.73869388 0.40410733 0.54598781 0.01401682
  0.50708333 0.50706122 0.49967778 0.5034129 ]
 [0.05522715 0.52766667 0.52742857 0.52470518 0.52602389 0.22444464
  0.60577559 0.66391837 0.56726177 0.60625742]
 [0.12984716 0.56467159 0.57930612 0.55278976 0.56261964 0.21937703
  0.60444304 0.72257143 0.53239991 0.60372955]
 [0.43320369 0.71629907 0.72228571 0.71027571 0.71472519 0.57292309
  0.78633333 0.78657143 0.78428333 0.78586145]
 [0.08028457 0.53983959 0.54510204 0.53206135 0.53794847 0.2081966
  0.60462362 0.60530612 0.60222856 0.60198417]
 [0.4513137  0.71913515 0.77257143 0.69920738 0.72334644 0.4689182
  0.73441667 0.73453061 0.72931935 0.73234635]
 [0.21075069 0.6035297  0.63991837 0.582889   0.60324539 0.37046463
  0.68105829 0.70608163 0.6661756  0.68240754]
 [0.207797   0.60091209 0.63804082 0.57616952 0.60026277 0.31313732
  0.65361691 0.66587755 0.63866931 0.6523038 ]
 [0.37751427 0.68778862 0.70836735 0.67731589 0.68725789 0.29386712
  0.64677288 0.682      0.62883968 0.64409731]]
KNN mean:
[0.24843248 0.62024854 0.67785822 0.57182857 0.61909578 0.30066372
 0.64709296 0.67951235 0.62625366 0.64688748]
---------------------------
---------------------------
DT performance:
[[0.35300464 0.67631752 0.6757551  0.67081291 0.67393649 0.56526278
  0.75032051 0.82314286 0.76085445 0.75630955]
 [0.37472582 0.6740676  0.6757551  0.66803447 0.67339897 0.40402119
  0.69866865 0.7122449  0.69503146 0.69429336]
 [0.23469889 0.62924229 0.63763265 0.62148784 0.62642262 0.15112487
  0.55541026 0.55526531 0.54170128 0.55402882]
 [0.53480074 0.76773061 0.79240816 0.76317033 0.76515489 0.47391437
  0.73658046 0.74465306 0.73436133 0.73460957]
 [0.21155826 0.60702731 0.66771429 0.5850029  0.60478361 0.26088777
  0.63934174 0.69       0.61990283 0.63896486]
 [0.37197769 0.68221154 0.68179592 0.66991749 0.67969054 0.35475195
  0.67597857 0.67828571 0.66391229 0.6742347 ]
 [0.02951198 0.51393888 0.53738776 0.48541634 0.51145236 0.3777072
  0.68229885 0.69612245 0.6843544  0.68202313]
 [0.10270333 0.56145276 0.6175102  0.50685385 0.55729363 0.26210544
  0.6257442  0.65183673 0.61571099 0.62515428]
 [0.58222826 0.79449918 0.79869388 0.7917058  0.79306248 0.44022135
  0.7368555  0.74661224 0.73926794 0.73559666]
 [0.18338278 0.56556617 0.79689796 0.47457365 0.56659262 0.44370563
  0.72707307 0.73844898 0.70904594 0.72679499]
 [0.1067506  0.56846962 0.61363265 0.56615681 0.56384092 0.27755006
  0.66901852 0.68387755 0.63966484 0.66401438]
 [0.07595951 0.55556067 0.66387755 0.45635476 0.54558756 0.05403454
  0.5375     0.53755102 0.5384493  0.53430477]
 [0.19816655 0.58047436 0.58142857 0.57474947 0.57763066 0.22248501
  0.6169359  0.6475102  0.59486337 0.60944877]
 [0.12154348 0.55826355 0.56771429 0.55141286 0.55540151 0.11895076
  0.56439626 0.656      0.48502132 0.5646502 ]
 [0.41126307 0.69577549 0.70069388 0.6837885  0.69475613 0.52509589
  0.7605     0.76036735 0.76450985 0.75964988]
 [0.19946346 0.60101883 0.60387755 0.59097009 0.60044692 0.31721241
  0.67285955 0.67812245 0.67187872 0.67097939]
 [0.35028558 0.67883403 0.7362449  0.66088847 0.68107958 0.34037443
  0.67225    0.67204082 0.66533042 0.67116689]
 [0.18414785 0.60075988 0.62987755 0.57312947 0.59574082 0.35605997
  0.66940153 0.68420408 0.66132221 0.66625895]
 [0.16974107 0.56934163 0.59326531 0.55829921 0.56631633 0.26927485
  0.63015533 0.63579592 0.63146598 0.62918493]
 [0.45235369 0.71276882 0.72869388 0.71505733 0.71275155 0.35887634
  0.68449198 0.70808163 0.69290048 0.68073853]]
DT mean:
[0.26241336 0.62966604 0.66504286 0.60838913 0.62726701 0.32868084
 0.66528904 0.68500816 0.65547747 0.66362033]
---------------------------
---------------------------
RF performance:
[[ 0.3328246   0.70272654  0.70828571  0.66598186  0.70225985  0.44789908
   0.69187457  0.79726531  0.67119272  0.70913827]
 [ 0.36161244  0.66468391  0.66591837  0.6654971   0.66342018  0.39954778
   0.69149972  0.71620408  0.66782499  0.69295981]
 [ 0.26765278  0.63113884  0.65971429  0.62982764  0.63183472  0.18695426
   0.56357692  0.56383673  0.54136897  0.56220117]
 [ 0.50836834  0.75435049  0.80257143  0.74011769  0.76483659  0.43501694
   0.73462644  0.75044898  0.72268009  0.73551035]
 [ 0.33409772  0.64276436  0.70808163  0.60658011  0.64561886  0.27923016
   0.6396201   0.70771429  0.59306302  0.64201609]
 [ 0.33889277  0.68732692  0.68783673  0.66311709  0.68586089  0.23037859
   0.64908646  0.65028571  0.63633465  0.64725949]
 [ 0.01714739  0.54443124  0.57538776  0.50222026  0.54106827  0.35564589
   0.67979885  0.70216327  0.65845033  0.68233589]
 [ 0.209963    0.57435383  0.64967347  0.52756764  0.5752884   0.22964609
   0.58363894  0.61963265  0.57313364  0.58263926]
 [ 0.65185961  0.80954433  0.81661224  0.81672624  0.80962529  0.4487647
   0.73678982  0.75016327  0.74470078  0.734278  ]
 [ 0.16590692  0.57576135  0.83710204  0.33371473  0.58568105  0.36509197
   0.68148194  0.698       0.70469697  0.68039419]
 [ 0.15264625  0.56451556  0.62967347  0.58980829  0.56004084  0.30515305
   0.676793    0.72828571  0.63488063  0.68225183]
 [ 0.08331322  0.49776561  0.68620408  0.29054115  0.48797404 -0.01351273
   0.51375     0.51359184  0.52078554  0.51125608]
 [ 0.16230929  0.52108974  0.52114286  0.57979418  0.518833    0.25793433
   0.64110498  0.684       0.61682894  0.64027142]
 [ 0.02800042  0.52871921  0.54930612  0.47763279  0.5261593   0.07952185
   0.55357308  0.69240816  0.42424233  0.55452052]
 [ 0.41098891  0.66916704  0.67640816  0.72420663  0.66707605  0.50902658
   0.7845      0.78444898  0.77911899  0.78374299]
 [ 0.18262041  0.62844048  0.63387755  0.56995293  0.62735759  0.28589271
   0.63998918  0.64363265  0.64379424  0.63752265]
 [ 0.37014873  0.68683123  0.75232653  0.66297178  0.69268021  0.49730745
   0.74858333  0.74865306  0.73564784  0.7474468 ]
 [ 0.23592373  0.55297202  0.5977551   0.5632113   0.55117242  0.32380639
   0.66494765  0.68416327  0.63762721  0.6645357 ]
 [ 0.23289046  0.59476891  0.6237551   0.54991855  0.59369181  0.31010547
   0.64368478  0.64604082  0.65435449  0.64197985]
 [ 0.40628118  0.71662705  0.74057143  0.72366087  0.71897418  0.32984763
   0.70313243  0.72812245  0.70729284  0.69804542]]
RF mean:
[0.27267241 0.62739893 0.6761102  0.59415244 0.62747268 0.31316291
 0.66110261 0.69045306 0.64340096 0.66151529]
---------------------------
---------------------------
SVM performance:
[[ 2.25818122e-01  6.07729469e-01  6.33795918e-01  5.21115334e-01
   5.78111428e-01  0.00000000e+00  5.00000000e-01  7.44530612e-01
   0.00000000e+00  4.26770917e-01]
 [ 1.94037630e-01  5.97157191e-01  5.99591837e-01  5.94582042e-01
   5.96266180e-01  2.46726737e-01  6.12234012e-01  6.80081633e-01
   5.22984048e-01  5.98881408e-01]
 [ 1.41991034e-01  5.62061404e-01  6.43918367e-01  3.67613357e-01
   5.05174215e-01  1.74887083e-01  5.87698718e-01  5.85755102e-01
   5.72201176e-01  5.79285623e-01]
 [ 4.98526780e-01  7.14154412e-01  8.12693878e-01  6.51733822e-01
   7.36147982e-01  3.47084310e-01  6.68189655e-01  6.98285714e-01
   6.43859917e-01  6.68202778e-01]
 [ 4.40097800e-03  5.01654412e-01  6.90163265e-01  2.50000000e-02
   4.13978603e-01  8.31295844e-03  5.03125000e-01  6.92163265e-01
   2.50000000e-02  4.14695758e-01]
 [            nan             nan             nan             nan
              nan             nan             nan             nan
              nan             nan]
 [-3.96039604e-03  4.98333333e-01  6.03673469e-01  0.00000000e+00
   3.76404516e-01  3.55985510e-01  6.62931034e-01  7.16122449e-01
   6.02607589e-01  6.61084279e-01]
 [ 0.00000000e+00  5.00000000e-01  6.76040816e-01  0.00000000e+00
   4.03347886e-01  0.00000000e+00  5.00000000e-01  6.17673469e-01
   0.00000000e+00  3.81825285e-01]
 [ 5.89361134e-01  7.91802135e-01  8.02571429e-01  7.88527483e-01
   7.94200920e-01  2.17971584e-01  5.96974548e-01  6.66040816e-01
   4.55968253e-01  5.59785568e-01]
 [ 0.00000000e+00  5.00000000e-01  8.51142857e-01  0.00000000e+00
   4.59779912e-01 -9.70478769e-03  4.95775862e-01  5.85510204e-01
   7.85533858e-02  3.86785904e-01]
 [ 0.00000000e+00  5.00000000e-01  6.55918367e-01  0.00000000e+00
   3.96097126e-01  0.00000000e+00  5.00000000e-01  6.35795918e-01
   0.00000000e+00  3.88667946e-01]
 [ 0.00000000e+00  5.00000000e-01  7.70653061e-01  0.00000000e+00
   4.35222430e-01  7.88716953e-02  5.39416667e-01  5.39510204e-01
   5.07409844e-01  5.24019717e-01]
 [ 1.34635882e-01  5.67442308e-01  5.67387755e-01  5.61215620e-01
   5.64398184e-01  0.00000000e+00  5.00000000e-01  6.49918367e-01
   0.00000000e+00  3.93893188e-01]
 [ 0.00000000e+00  5.00000000e-01  5.83551020e-01  0.00000000e+00
   3.68500487e-01  0.00000000e+00  5.00000000e-01  7.32408163e-01
   0.00000000e+00  4.22755161e-01]
 [ 3.36887310e-01  6.61361770e-01  6.88326531e-01  6.23726824e-01
   6.56870723e-01  5.60887797e-01  7.80333333e-01  7.80571429e-01
   7.77272759e-01  7.79361091e-01]
 [ 6.90846287e-04  5.00322061e-01  5.37183673e-01  2.04616605e-02
   3.53056277e-01  2.12765549e-01  6.04912217e-01  6.17346939e-01
   5.92756863e-01  6.03821195e-01]
 [ 2.36910949e-01  5.98667717e-01  7.30489796e-01  4.71361200e-01
   5.92198334e-01  4.84864323e-01  7.42166667e-01  7.42653061e-01
   7.37312040e-01  7.40559328e-01]
 [ 0.00000000e+00  5.00000000e-01  6.31795918e-01  0.00000000e+00
   3.87162376e-01  3.15969955e-01  6.45468308e-01  7.02285714e-01
   5.77128749e-01  6.38637234e-01]
 [ 0.00000000e+00  5.00000000e-01  6.21755102e-01  0.00000000e+00
   3.83375918e-01  2.45354582e-01  6.15020024e-01  6.49795918e-01
   5.00985619e-01  5.76670033e-01]
 [ 0.00000000e+00  5.00000000e-01  6.13673469e-01  0.00000000e+00
   3.80282075e-01  0.00000000e+00  5.00000000e-01  6.51918367e-01
   0.00000000e+00  3.94627834e-01]]
SVM mean:
[0.1241737  0.55793085 0.66917508 0.24343881 0.4937145  0.17052512
 0.58180242 0.66780881 0.34705475 0.53370159]
---------------------------
---------------------------
GBM performance:
[[ 0.41810007  0.70514932  0.71828571  0.68212277  0.70128143  0.3440566
   0.634728    0.80906122  0.50896797  0.65060983]
 [ 0.31961099  0.66094586  0.65991837  0.65538635  0.65690303  0.33935371
   0.65429966  0.71616327  0.58526369  0.65028913]
 [ 0.30830869  0.64082275  0.69808163  0.57183697  0.63210442  0.21047381
   0.60509615  0.60591837  0.58805831  0.59733188]
 [ 0.51984192  0.72481618  0.82065306  0.65734745  0.74692322  0.37544742
   0.6737069   0.72653061  0.60423707  0.66628177]
 [ 0.08517654  0.53316001  0.70628571  0.20891063  0.47673835  0.03633512
   0.51376751  0.6962449   0.09846703  0.43881777]
 [        nan         nan         nan         nan         nan         nan
          nan         nan         nan         nan]
 [ 0.0751091   0.53212507  0.62183673  0.31304356  0.4670523   0.40706914
   0.68882184  0.73628571  0.64083449  0.69054715]
 [ 0.03469276  0.51402629  0.67395918  0.17878804  0.44888444  0.08640071
   0.53724392  0.6337551   0.31475435  0.47896552]
 [ 0.66546301  0.82976601  0.83877551  0.83220882  0.8323022   0.55015989
   0.77285714  0.78461224  0.76733612  0.77409844]
 [-0.00362694  0.49883721  0.84914286  0.          0.45919553  0.42851633
   0.70520115  0.7384898   0.67611552  0.70682586]
 [ 0.04940776  0.51693776  0.66        0.19299403  0.44459827  0.25834368
   0.60989908  0.70804082  0.48408686  0.59292321]
 [ 0.          0.5         0.77065306  0.          0.43522243  0.1069565
   0.5555      0.55542857  0.53803333  0.54706019]
 [ 0.20603041  0.60558333  0.60363265  0.58014827  0.59315207  0.19214836
   0.58190917  0.69412245  0.40842213  0.55332186]
 [ 0.05245041  0.52331281  0.59183673  0.30671915  0.4530071   0.
   0.50384615  0.73440816  0.02773501  0.43039254]
 [ 0.441064    0.71360278  0.7344898   0.69200112  0.71458986  0.59807058
   0.7995      0.79865306  0.79007643  0.7956368 ]
 [ 0.20598554  0.599808    0.61771429  0.54601959  0.58218265  0.31113586
   0.65385402  0.67195918  0.62921847  0.6501839 ]
 [ 0.1853588   0.57393207  0.72444898  0.38505223  0.55362932  0.52898462
   0.76425     0.76469388  0.7598077   0.76284886]
 [-0.01148987  0.49538973  0.62179592  0.05327265  0.39526119  0.26287794
   0.61999576  0.68228571  0.53421576  0.60582825]
 [ 0.22689714  0.60112998  0.67608163  0.51067991  0.58920562  0.3643757
   0.67456919  0.69804082  0.62824841  0.66597302]
 [ 0.32547774  0.64556593  0.71840816  0.54909254  0.63282319  0.08992863
   0.5361204   0.67208163  0.25585013  0.47310941]]
GBM mean:
[0.21599253 0.60078479 0.70031579 0.41661179 0.56921351 0.28898077
 0.63606137 0.7066724  0.51788046 0.61742344]
---------------------------
---------------------------
BDDAE performance:
[[0. 0. 0. 0. 0. 0. 0. 0. 0. 0.]
 [0. 0. 0. 0. 0. 0. 0. 0. 0. 0.]
 [0. 0. 0. 0. 0. 0. 0. 0. 0. 0.]
 [0. 0. 0. 0. 0. 0. 0. 0. 0. 0.]
 [0. 0. 0. 0. 0. 0. 0. 0. 0. 0.]
 [0. 0. 0. 0. 0. 0. 0. 0. 0. 0.]
 [0. 0. 0. 0. 0. 0. 0. 0. 0. 0.]
 [0. 0. 0. 0. 0. 0. 0. 0. 0. 0.]
 [0. 0. 0. 0. 0. 0. 0. 0. 0. 0.]
 [0. 0. 0. 0. 0. 0. 0. 0. 0. 0.]
 [0. 0. 0. 0. 0. 0. 0. 0. 0. 0.]
 [0. 0. 0. 0. 0. 0. 0. 0. 0. 0.]
 [0. 0. 0. 0. 0. 0. 0. 0. 0. 0.]
 [0. 0. 0. 0. 0. 0. 0. 0. 0. 0.]
 [0. 0. 0. 0. 0. 0. 0. 0. 0. 0.]
 [0. 0. 0. 0. 0. 0. 0. 0. 0. 0.]
 [0. 0. 0. 0. 0. 0. 0. 0. 0. 0.]
 [0. 0. 0. 0. 0. 0. 0. 0. 0. 0.]
 [0. 0. 0. 0. 0. 0. 0. 0. 0. 0.]
 [0. 0. 0. 0. 0. 0. 0. 0. 0. 0.]]
BDDAE mean:
[0. 0. 0. 0. 0. 0. 0. 0. 0. 0.]
---------------------------
---------------------------
DUMMY performance:
[[0.         0.5        0.54330612 0.         0.35203349 0.
  0.5        0.74453061 0.         0.42677092]
 [0.         0.5        0.53922449 0.         0.35031419 0.
  0.5        0.61167347 0.         0.37951047]
 [0.         0.5        0.59959184 0.         0.37483366 0.
  0.5        0.50706122 0.         0.33643907]
 [0.         0.5        0.67404082 0.         0.40263073 0.
  0.5        0.59755102 0.         0.37403846]
 [0.         0.5        0.69016327 0.         0.40832574 0.
  0.5        0.69016327 0.         0.40832574]
 [0.         0.5        0.51706122 0.         0.34082504 0.
  0.5        0.53718367 0.         0.34945455]
 [0.         0.5        0.60567347 0.         0.37719566 0.
  0.5        0.59755102 0.         0.37403846]
 [0.         0.5        0.67604082 0.         0.40334789 0.
  0.5        0.61767347 0.         0.38182529]
 [0.         0.5        0.58755102 0.         0.37008277 0.
  0.5        0.59155102 0.         0.37166504]
 [0.         0.5        0.85114286 0.         0.45977991 0.
  0.5        0.59555102 0.         0.37324732]
 [0.         0.5        0.65591837 0.         0.39609713 0.
  0.5        0.63579592 0.         0.38866795]
 [0.         0.5        0.77065306 0.         0.43522243 0.
  0.5        0.50306122 0.         0.33468468]
 [0.         0.5        0.50706122 0.         0.33643907 0.
  0.5        0.64991837 0.         0.39389319]
 [0.         0.5        0.58355102 0.         0.36850049 0.
  0.5        0.73240816 0.         0.42275516]
 [0.         0.5        0.56742857 0.         0.36199581 0.
  0.5        0.50306122 0.         0.33468468]
 [0.         0.5        0.53718367 0.         0.34945455 0.
  0.5        0.55934694 0.         0.35869832]
 [0.         0.5        0.68816327 0.         0.40762546 0.
  0.5        0.50306122 0.         0.33468468]
 [0.         0.5        0.63179592 0.         0.38716238 0.
  0.5        0.60567347 0.         0.37719566]
 [0.         0.5        0.6217551  0.         0.38337592 0.
  0.5        0.54930612 0.         0.354531  ]
 [0.         0.5        0.61367347 0.         0.38028208 0.
  0.5        0.65191837 0.         0.39462783]]
DUMMY mean:
[0.         0.5        0.62304898 0.         0.38227622 0.
 0.5        0.59920204 0.         0.37348692]
---------------------------
Current folder: C:\Users\Javier\Dropbox\c_sldl_3_1_6
-------------------------------------
----- RESULTS ------
-------------------------------------
Window size (sec):  4.992
step (sec):  2.496
overlap:  True
perc. of overlap:  50.0
Number of windows / instances:  497
---------------------------
ALG Means: 
-rows: alg : KNN = 0; DT = 1; RF = 2; SVM = 3; GBM = 4; BDDAE = 5; DUMMY = 5
columns:
'val_cohen','val_uar', 'val_acc', 'val_gm',  'val_f1',  'aro_cohen','aro_uar', 'aro_acc', 'aro_gm',  'aro_f1'
-------------------------------------------------------------
  v_c   v_u   v_a   v_g   v_f1  a_c   a_u   a_a   a_g   a_f1
[[0.248 0.62  0.678 0.572 0.619 0.301 0.647 0.68  0.626 0.647]
 [0.262 0.63  0.665 0.608 0.627 0.329 0.665 0.685 0.655 0.664]
 [0.273 0.627 0.676 0.594 0.627 0.313 0.661 0.69  0.643 0.662]
 [0.124 0.558 0.669 0.243 0.494 0.171 0.582 0.668 0.347 0.534]
 [0.216 0.601 0.7   0.417 0.569 0.289 0.636 0.707 0.518 0.617]
 [0.    0.    0.    0.    0.    0.    0.    0.    0.    0.   ]
 [0.    0.5   0.623 0.    0.382 0.    0.5   0.599 0.    0.373]]
Elapsed time: 1090.6274852871895 minutes
Elapsed time: 18.17712475478649 hours
