2024-03-10 06:36:17.269504: I tensorflow/core/util/port.cc:113] oneDNN custom operations are on. You may see slightly different numerical results due to floating-point round-off errors from different computation orders. To turn them off, set the environment variable `TF_ENABLE_ONEDNN_OPTS=0`.
2024-03-10 06:36:20.560759: I tensorflow/core/util/port.cc:113] oneDNN custom operations are on. You may see slightly different numerical results due to floating-point round-off errors from different computation orders. To turn them off, set the environment variable `TF_ENABLE_ONEDNN_OPTS=0`.
2024-03-10 06:36:28.648579: I tensorflow/core/platform/cpu_feature_guard.cc:210] This TensorFlow binary is optimized to use available CPU instructions in performance-critical operations.
To enable the following instructions: AVX2 FMA, in other operations, rebuild TensorFlow with the appropriate compiler flags.
    
    
-------------------------------
participant:  1
-------------------------------
    
    
participant:  1
corriendo en PC gamer:
Window size (sec):  5.0
step (sec):  5.0
overlap:  True
perc. of overlap:  0.0
Nearest multiple of 16 to 5000 is: 4992
Nearest multiple of 16 to 5000 is: 4992
['gsr_chunks', 'ppg_chunks', 'val_chunks', 'aro_chunks', 'time_chunks', 'tag_chunks', 'video']
C:\Users\Javier\Dropbox\c_sldl_3_1_4\functions.py:880: FutureWarning: ChainedAssignmentError: behaviour will change in pandas 3.0!
_copy[labels[label]].iloc[index].apply(map_labels_bipartite, args=(number_thresholds, threshold, L, H))
----- Extracting features...
Class Imbalance test (arousal)....
Multiclass distribution
Class=1, n=164 (65.339%)
Class=0, n=87 (34.661%)
Class Imbalance test (valence)....
Multiclass distribution
Class=0, n=98 (39.044%)
Class=1, n=153 (60.956%)
------------- Evaluating model --------------
------------- Evaluating model --------------
------------- Evaluating model --------------
------------- Evaluating model --------------
------------- Evaluating model --------------
arousal and valece = ok
------------- Evaluating model --------------
-------------------------------------
-------------------------------------
participant:  30
-------------------------------------
----- RESULTS ------
-------------------------------------
Window size (sec):  4.992
step (sec):  4.992
overlap:  True
perc. of overlap:  0.0
Number of windows / instances:  251
-rows: alg : KNN = 0; DT = 1; RF = 2; SVM = 3; GBM = 4; BDDAE = 5; DUMMY = 5
columns:
'val_cohen','val_uar', 'val_acc', 'val_gm',  'val_f1',  'aro_cohen','aro_uar', 'aro_acc', 'aro_gm',  'aro_f1'
-------------------------------------------------------------
  v_c   v_u   v_a   v_g   v_f1  a_c   a_u   a_a   a_g   a_f1
[[0.329 0.663 0.682 0.651 0.661 0.297 0.653 0.674 0.644 0.646]
 [0.338 0.68  0.697 0.664 0.673 0.369 0.669 0.701 0.69  0.668]
 [0.396 0.663 0.689 0.641 0.658 0.362 0.612 0.662 0.624 0.612]
 [0.    0.5   0.61  0.    0.379 0.    0.5   0.653 0.    0.395]
 [0.363 0.666 0.729 0.59  0.657 0.15  0.562 0.69  0.333 0.52 ]
 [0.    0.    0.    0.    0.    0.    0.    0.    0.    0.   ]
 [0.    0.5   0.61  0.    0.379 0.    0.5   0.653 0.    0.395]]
participant performance loaded
    
    
-------------------------------
LAST participant's saved data: 
30
-------------------------------
    
    
---------------------------
KNN performance:
[[ 0.38073748  0.69059274  0.69307692  0.68484831  0.68814535  0.39442495
   0.68370927  0.79292308  0.59920549  0.68791301]
 [ 0.21522286  0.60884948  0.61        0.60011339  0.60355864  0.20911914
   0.59895833  0.64584615  0.54098743  0.58961673]
 [ 0.22159877  0.60686147  0.64184615  0.56948494  0.60233067  0.06539373
   0.53269231  0.53384615  0.52239133  0.52803808]
 [ 0.49644363  0.73361928  0.79292308  0.7033806   0.74347     0.28311417
   0.64121212  0.65384615  0.63355411  0.64020029]
 [ 0.15457378  0.56889589  0.66153846  0.49645931  0.56625659  0.10634185
   0.54830182  0.64538462  0.47459312  0.54573908]
 [        nan         nan         nan         nan         nan         nan
          nan         nan         nan         nan]
 [-0.0083238   0.49486111  0.54153846  0.44539196  0.48856193  0.29814298
   0.64642857  0.67692308  0.61059266  0.64066001]
 [        nan         nan         nan         nan         nan         nan
          nan         nan         nan         nan]
 [ 0.09685269  0.54362745  0.64184615  0.42371539  0.52951404  0.22388893
   0.6075      0.64538462  0.57424148  0.60460652]
 [ 0.51521564  0.75915584  0.76461538  0.75239905  0.75535275  0.2861405
   0.63854978  0.66169231  0.62333308  0.64005317]
 [ 0.03857411  0.5137987   0.81276923  0.11950568  0.49731119  0.13014004
   0.56668831  0.58107692  0.55032741  0.56201014]
 [ 0.21625584  0.60126634  0.66476923  0.54786215  0.59885919  0.20434328
   0.59532271  0.65676923  0.54900285  0.59579035]
 [ 0.01968038  0.50535088  0.72138462  0.2180318   0.49059322 -0.06306436
   0.46826923  0.46953846  0.46128384  0.46555674]
 [ 0.08336962  0.54198718  0.54184615  0.53220821  0.53704287  0.20041842
   0.5933415   0.65815385  0.53959325  0.59092216]
 [-0.00224056  0.49835498  0.51753846  0.47755737  0.49563073  0.06352527
   0.52155388  0.68092308  0.36233917  0.51286156]
 [ 0.32206592  0.65822511  0.67707692  0.64243121  0.65792984  0.49490871
   0.74679487  0.74907692  0.73377184  0.74233671]
 [ 0.13587524  0.56738262  0.57353846  0.54450048  0.55892956  0.1490772
   0.57514569  0.57353846  0.56915414  0.56978462]
 [ 0.39462787  0.68913399  0.74876923  0.65992334  0.69321547  0.49774715
   0.74839744  0.74938462  0.74297807  0.74670064]
 [ 0.0726879   0.53618056  0.57723077  0.49875391  0.53121101  0.27929868
   0.63298611  0.67753846  0.59230837  0.63038582]
 [ 0.19959112  0.59743056  0.63292308  0.57019261  0.59578081  0.27978631
   0.6353355   0.65723077  0.59558317  0.62653523]
 [ 0.3292307   0.66347222  0.68153846  0.65083645  0.66070933  0.29683669
   0.65281863  0.67369231  0.64395112  0.64643063]]
KNN mean:
[0.20431785 0.59889718 0.6577247  0.53355769 0.59444227 0.23155703
 0.61231611 0.6517247  0.57469431 0.60874429]
---------------------------
---------------------------
DT performance:
[[ 3.73491728e-01  6.98801199e-01  7.00769231e-01  6.94122456e-01
   6.97960929e-01  3.94582146e-01  6.98078530e-01  7.68923077e-01
   6.03852506e-01  6.94161142e-01]
 [ 1.64843630e-01  5.90455378e-01  5.97692308e-01  5.62272569e-01
   5.89056742e-01  3.51105176e-01  6.77500000e-01  6.96461538e-01
   6.88026395e-01  6.73523073e-01]
 [ 1.64523940e-01  5.74502165e-01  5.85692308e-01  5.90267955e-01
   5.64042790e-01  2.29124505e-02  5.03846154e-01  5.05846154e-01
   5.00701125e-01  4.96632596e-01]
 [ 3.88211622e-01  6.84272876e-01  7.21692308e-01  6.88172868e-01
   6.80596270e-01  3.69845356e-01  6.79610390e-01  6.85230769e-01
   6.56501593e-01  6.76497547e-01]
 [ 4.17154040e-02  5.31156629e-01  6.02000000e-01  4.06719871e-01
   5.27411262e-01  2.06763849e-01  6.01919935e-01  6.44923077e-01
   5.95749470e-01  5.97971674e-01]
 [ 2.76983703e-01  6.33333333e-01  6.33384615e-01  5.97447552e-01
   6.30037576e-01  2.53137259e-01  6.17653180e-01  6.21076923e-01
   6.36855531e-01  6.12257705e-01]
 [ 3.55486478e-02  5.12569444e-01  5.33846154e-01  4.92954304e-01
   5.05901849e-01  1.31558816e-01  5.56233766e-01  5.69076923e-01
   5.48572805e-01  5.51902391e-01]
 [ 5.56572869e-02  5.14913420e-01  5.26000000e-01  5.22812664e-01
   5.12112367e-01  1.56398404e-01  5.55367965e-01  5.61692308e-01
   5.33735630e-01  5.38954064e-01]
 [ 2.90147650e-02  5.09334150e-01  5.70000000e-01  4.70322267e-01
   5.05294850e-01  2.16351782e-01  6.02777778e-01  6.21846154e-01
   5.74728721e-01  6.00424097e-01]
 [ 5.60844048e-01  7.90800866e-01  7.96461538e-01  7.55810064e-01
   7.89637350e-01  5.09522227e-01  7.44610390e-01  7.49538462e-01
   7.23298142e-01  7.37657215e-01]
 [ 1.45239764e-01  5.75757576e-01  7.29384615e-01  4.48508969e-01
   5.54216896e-01  3.23607829e-01  6.91168831e-01  6.92923077e-01
   6.56728901e-01  6.83909808e-01]
 [ 1.31139611e-01  5.45547386e-01  5.89538462e-01  4.84854545e-01
   5.39976930e-01  2.88060857e-01  6.37050654e-01  6.53538462e-01
   6.24919243e-01  6.27675384e-01]
 [-1.67305641e-04  4.72061404e-01  6.21384615e-01  3.53035809e-01
   4.67811610e-01 -1.91259891e-02  4.98717949e-01  4.98615385e-01
   4.68190134e-01  4.90863813e-01]
 [ 1.83358576e-01  5.84935897e-01  5.85384615e-01  5.80027258e-01
   5.73989032e-01  2.39609054e-01  6.22201797e-01  6.57538462e-01
   5.85482695e-01  6.17419271e-01]
 [-8.45903660e-04  4.82467532e-01  4.97846154e-01  4.52582527e-01
   4.77326686e-01  1.43660095e-01  5.46386800e-01  6.33230769e-01
   4.55359211e-01  5.33090025e-01]
 [ 3.07612628e-01  6.57878788e-01  6.65230769e-01  6.09566354e-01
   6.54712526e-01  4.22325720e-01  7.18269231e-01  7.20615385e-01
   7.03528297e-01  7.14103377e-01]
 [ 1.27324179e-01  5.79245754e-01  5.82307692e-01  5.60262583e-01
   5.75654815e-01  1.82837946e-01  5.97702298e-01  6.00923077e-01
   6.12457311e-01  5.93263650e-01]
 [ 3.67039505e-01  6.67361111e-01  7.05230769e-01  6.65872315e-01
   6.56625445e-01  4.47716269e-01  6.92948718e-01  6.93230769e-01
   6.99517402e-01  6.89562816e-01]
 [ 8.17979054e-02  5.75416667e-01  6.06153846e-01  5.10276185e-01
   5.70613663e-01  1.70977902e-01  5.92083333e-01  6.13692308e-01
   5.79917889e-01  5.87879015e-01]
 [ 1.37935945e-01  5.32013889e-01  5.50000000e-01  5.47329711e-01
   5.28213727e-01  2.14435955e-01  6.06709957e-01  6.09692308e-01
   5.91263844e-01  6.04015726e-01]
 [ 3.37854791e-01  6.80138889e-01  6.96769231e-01  6.63659888e-01
   6.73388068e-01  3.69325277e-01  6.69444444e-01  7.01076923e-01
   6.90075264e-01  6.67962212e-01]]
DT mean:
[0.18614878 0.59014116 0.62365568 0.55508946 0.58450388 0.25693373
 0.62429915 0.64284249 0.60616486 0.61855841]
---------------------------
---------------------------
RF performance:
[[ 0.35430842  0.65578172  0.65738462  0.66554949  0.65217768  0.35453805
   0.7125731   0.80476923  0.68716114  0.71980406]
 [ 0.17555832  0.65588578  0.65769231  0.6010377   0.65057225  0.28071476
   0.61604167  0.64938462  0.65420713  0.61369815]
 [ 0.28189666  0.65119048  0.66969231  0.60165136  0.65152013  0.02086157
   0.55064103  0.54969231  0.48671707  0.54452394]
 [ 0.4764243   0.74303513  0.78907692  0.69989497  0.74370577  0.41533628
   0.6824026   0.68938462  0.67830207  0.67858062]
 [ 0.20631541  0.60483777  0.68169231  0.57412451  0.60618953  0.21408186
   0.62137605  0.69292308  0.50895972  0.61783795]
 [ 0.25178942  0.65608974  0.65738462  0.63109738  0.65423574  0.19996801
   0.61824842  0.62584615  0.57320995  0.61497812]
 [ 0.01846909  0.55513889  0.60184615  0.45288239  0.54498394  0.2882619
   0.60859307  0.63292308  0.5973388   0.60326935]
 [ 0.07774055  0.54175325  0.55769231  0.53201895  0.53446192  0.22185178
   0.62857143  0.63707692  0.62871203  0.61873053]
 [ 0.2017591   0.53944036  0.606       0.49636264  0.53557047  0.14441134
   0.56743056  0.59738462  0.55390112  0.56022398]
 [ 0.53753361  0.77649351  0.78446154  0.80375629  0.77581232  0.36792724
   0.75145022  0.76523077  0.69874129  0.75313956]
 [ 0.05307883  0.5387987   0.82076923  0.09759001  0.52823997  0.31931972
   0.69051948  0.70507692  0.64174211  0.68843131]
 [ 0.1405284   0.59276961  0.65753846  0.55514005  0.59044573  0.30257962
   0.59099265  0.64507692  0.51964074  0.58922051]
 [-0.00276331  0.54592105  0.74892308  0.266481    0.53762795 -0.07716474
   0.45288462  0.45384615  0.50548611  0.44229871]
 [ 0.07708129  0.51794872  0.51784615  0.54367505  0.51387918  0.25261024
   0.60866013  0.66584615  0.58717057  0.60394587]
 [ 0.0166929   0.46082251  0.47446154  0.4731532   0.45865857  0.12703612
   0.55586884  0.67723077  0.41019581  0.54911498]
 [ 0.34381194  0.64774892  0.66092308  0.66630157  0.64668497  0.47209484
   0.73173077  0.73307692  0.75530675  0.72826159]
 [ 0.11378092  0.57237762  0.578       0.57505946  0.56586837  0.15695995
   0.5588037   0.56553846  0.57206724  0.5537155 ]
 [ 0.38775529  0.68431373  0.73307692  0.64331767  0.6848969   0.4488779
   0.68717949  0.68876923  0.69482003  0.68365007]
 [ 0.04194697  0.52194444  0.57784615  0.46221206  0.51341579  0.30919813
   0.60520833  0.63323077  0.61648759  0.60285711]
 [ 0.17405965  0.58243056  0.61        0.52914559  0.57953604  0.22307593
   0.6129329   0.62169231  0.64537029  0.61188243]
 [ 0.39624805  0.66263889  0.68892308  0.64098767  0.65842663  0.3624457
   0.61162173  0.66169231  0.62440302  0.61166445]]
RF mean:
[0.20590552 0.60511245 0.65386813 0.54816376 0.60128142 0.2573803
 0.62208242 0.65217582 0.60190193 0.61856328]
---------------------------
---------------------------
SVM performance:
[[ 0.20272532  0.5962038   0.62569231  0.45866225  0.54405847  0.
   0.5         0.73707692  0.          0.42425182]
 [-0.00277437  0.49897186  0.54984615  0.0858364   0.37482878  0.
   0.5         0.61353846  0.          0.38016841]
 [ 0.          0.5         0.59369231  0.          0.3724828   0.06714946
   0.53397436  0.53        0.43403622  0.48418203]
 [ 0.45529063  0.69844771  0.79723077  0.59211426  0.70464899  0.11011468
   0.54893939  0.614       0.36278322  0.49411844]
 [ 0.          0.5         0.68523077  0.          0.40657908  0.
   0.5         0.68923077  0.          0.40796335]
 [        nan         nan         nan         nan         nan         nan
          nan         nan         nan         nan]
 [ 0.          0.5         0.60953846  0.          0.37864402  0.09085256
   0.53954545  0.62169231  0.25659485  0.46094173]
 [        nan         nan         nan         nan         nan         nan
          nan         nan         nan         nan]
 [ 0.          0.5         0.66938462  0.          0.400917    0.
   0.5         0.61753846  0.          0.3816928 ]
 [ 0.54507305  0.76835498  0.78476923  0.75639359  0.76970562  0.
   0.5         0.59369231  0.          0.3724828 ]
 [ 0.          0.5         0.84061538  0.          0.4567029   0.
   0.5         0.58969231  0.          0.37088024]
 [ 0.          0.5         0.64538462  0.          0.3922062   0.
   0.5         0.64138462  0.          0.3907544 ]
 [ 0.          0.5         0.76892308  0.          0.43463988 -0.01734842
   0.49134615  0.498       0.03396831  0.34091937]
 [-0.06501382  0.46762821  0.46646154  0.25994173  0.39017428  0.
   0.5         0.64938462  0.          0.393658  ]
 [ 0.          0.5         0.58169231  0.          0.36767511  0.
   0.5         0.72907692  0.          0.42160911]
 [ 0.27125792  0.6262987   0.66907692  0.55912387  0.61547836  0.53388236
   0.76602564  0.76861538  0.75734359  0.76387646]
 [ 0.          0.5         0.54184615  0.          0.35132928  0.
   0.5         0.55384615  0.          0.35639001]
 [-0.015311    0.49411765  0.67323077  0.          0.4022912   0.47344663
   0.73589744  0.73738462  0.72399717  0.73202799]
 [ 0.          0.5         0.63753846  0.          0.38931475  0.
   0.5         0.61353846  0.          0.38016841]
 [ 0.          0.5         0.61753846  0.          0.3816928   0.09100583
   0.54150433  0.59369231  0.24724135  0.44478882]
 [ 0.          0.5         0.60953846  0.          0.37864402  0.
   0.5         0.65338462  0.          0.3951098 ]]
SVM mean:
[0.07322357 0.53421173 0.65090688 0.14274064 0.44800071 0.07100543
 0.5345912  0.63393522 0.14820867 0.44189389]
---------------------------
---------------------------
GBM performance:
[[ 0.53064893  0.76019814  0.77246154  0.74305779  0.76019874  0.30807299
   0.62713033  0.79292308  0.47026206  0.62631001]
 [ 0.22109404  0.6110681   0.61384615  0.60129283  0.60614317  0.2735136
   0.6225      0.68892308  0.49626075  0.59444118]
 [ 0.26146144  0.62064935  0.67384615  0.5439333   0.60792153  0.1412785
   0.56666667  0.56523077  0.54620807  0.55689371]
 [ 0.46903755  0.70853758  0.79723077  0.65244795  0.71858314  0.35357888
   0.66406926  0.70938462  0.60415308  0.65359231]
 [ 0.03366276  0.51948529  0.68923077  0.20328468  0.45400875  0.03977681
   0.51617647  0.69323077  0.11816218  0.44686497]
 [        nan         nan         nan         nan         nan         nan
          nan         nan         nan         nan]
 [ 0.09820817  0.54361111  0.62953846  0.34661535  0.49323522  0.27761467
   0.62779221  0.68107692  0.54260155  0.61728291]
 [        nan         nan         nan         nan         nan         nan
          nan         nan         nan         nan]
 [ 0.01547827  0.50647467  0.65753846  0.15043704  0.44232827  0.01472605
   0.50298611  0.58953846  0.31231707  0.45539871]
 [ 0.67198421  0.83151515  0.83661538  0.83328996  0.83073483  0.51231191
   0.75625541  0.77323077  0.74718263  0.75873958]
 [ 0.          0.5         0.84061538  0.          0.4567029   0.29056136
   0.63896104  0.67707692  0.59145515  0.63763484]
 [ 0.20014879  0.5904616   0.68907692  0.43389234  0.56456995  0.25002362
   0.60659722  0.70892308  0.47401462  0.58869089]
 [ 0.          0.5         0.76892308  0.          0.43463988 -0.06725728
   0.46730769  0.46969231  0.40663107  0.44002401]
 [ 0.17417801  0.58012821  0.57784615  0.55604608  0.56402673  0.10164605
   0.53878676  0.66184615  0.3024527   0.49089962]
 [-0.00695325  0.49677489  0.55784615  0.2592668   0.43283497 -0.00752688
   0.49722222  0.72507692  0.          0.42022484]
 [ 0.39500918  0.6908658   0.71692308  0.66365584  0.69107642  0.58595712
   0.79391026  0.79261538  0.78094726  0.78937371]
 [ 0.12659054  0.56124709  0.58246154  0.47638283  0.53085704  0.26810959
   0.63153929  0.65276923  0.58125201  0.61797823]
 [ 0.16334741  0.56691176  0.70907692  0.37453786  0.54097537  0.51071029
   0.75480769  0.75676923  0.74333739  0.75075963]
 [-0.00190088  0.49930556  0.63353846  0.03227486  0.39631842  0.21028274
   0.59736111  0.66523077  0.47788841  0.5766494 ]
 [ 0.04714417  0.52069444  0.61784615  0.26391732  0.45563034  0.35366581
   0.66969697  0.69692308  0.61628444  0.65805542]
 [ 0.36289009  0.66618056  0.72876923  0.58957836  0.65743665  0.15002424
   0.5621732   0.68953846  0.33258679  0.51980381]]
GBM mean:
[0.19800155 0.59337417 0.68911741 0.40652164 0.55990644 0.24037211
 0.61273368 0.68368421 0.48126301 0.58945357]
---------------------------
---------------------------
BDDAE performance:
[[0. 0. 0. 0. 0. 0. 0. 0. 0. 0.]
 [0. 0. 0. 0. 0. 0. 0. 0. 0. 0.]
 [0. 0. 0. 0. 0. 0. 0. 0. 0. 0.]
 [0. 0. 0. 0. 0. 0. 0. 0. 0. 0.]
 [0. 0. 0. 0. 0. 0. 0. 0. 0. 0.]
 [0. 0. 0. 0. 0. 0. 0. 0. 0. 0.]
 [0. 0. 0. 0. 0. 0. 0. 0. 0. 0.]
 [0. 0. 0. 0. 0. 0. 0. 0. 0. 0.]
 [0. 0. 0. 0. 0. 0. 0. 0. 0. 0.]
 [0. 0. 0. 0. 0. 0. 0. 0. 0. 0.]
 [0. 0. 0. 0. 0. 0. 0. 0. 0. 0.]
 [0. 0. 0. 0. 0. 0. 0. 0. 0. 0.]
 [0. 0. 0. 0. 0. 0. 0. 0. 0. 0.]
 [0. 0. 0. 0. 0. 0. 0. 0. 0. 0.]
 [0. 0. 0. 0. 0. 0. 0. 0. 0. 0.]
 [0. 0. 0. 0. 0. 0. 0. 0. 0. 0.]
 [0. 0. 0. 0. 0. 0. 0. 0. 0. 0.]
 [0. 0. 0. 0. 0. 0. 0. 0. 0. 0.]
 [0. 0. 0. 0. 0. 0. 0. 0. 0. 0.]
 [0. 0. 0. 0. 0. 0. 0. 0. 0. 0.]
 [0. 0. 0. 0. 0. 0. 0. 0. 0. 0.]]
BDDAE mean:
[0. 0. 0. 0. 0. 0. 0. 0. 0. 0.]
---------------------------
---------------------------
DUMMY performance:
[[0.         0.5        0.54184615 0.         0.35132928 0.
  0.5        0.73707692 0.         0.42425182]
 [0.         0.5        0.55384615 0.         0.35639001 0.
  0.5        0.61353846 0.         0.38016841]
 [0.         0.5        0.59369231 0.         0.3724828  0.
  0.5        0.502      0.         0.33411569]
 [0.         0.5        0.66938462 0.         0.400917   0.
  0.5        0.58569231 0.         0.36927767]
 [0.         0.5        0.68523077 0.         0.40657908 0.
  0.5        0.68923077 0.         0.40796335]
 [0.         0.5        0.518      0.         0.34122807 0.
  0.5        0.53784615 0.         0.34964238]
 [0.         0.5        0.60953846 0.         0.37864402 0.
  0.5        0.59369231 0.         0.3724828 ]
 [0.         0.5        0.57769231 0.         0.36607255 0.
  0.5        0.56569231 0.         0.36126485]
 [0.         0.5        0.66938462 0.         0.400917   0.
  0.5        0.61753846 0.         0.3816928 ]
 [0.         0.5        0.58569231 0.         0.36927767 0.
  0.5        0.59369231 0.         0.3724828 ]
 [0.         0.5        0.84061538 0.         0.4567029  0.
  0.5        0.58969231 0.         0.37088024]
 [0.         0.5        0.64538462 0.         0.3922062  0.
  0.5        0.64138462 0.         0.3907544 ]
 [0.         0.5        0.76892308 0.         0.43463988 0.
  0.5        0.506      0.         0.33589379]
 [0.         0.5        0.506      0.         0.33589379 0.
  0.5        0.64938462 0.         0.393658  ]
 [0.         0.5        0.58169231 0.         0.36767511 0.
  0.5        0.72907692 0.         0.42160911]
 [0.         0.5        0.57769231 0.         0.36607255 0.
  0.5        0.514      0.         0.33944998]
 [0.         0.5        0.54184615 0.         0.35132928 0.
  0.5        0.55384615 0.         0.35639001]
 [0.         0.5        0.68123077 0.         0.40519481 0.
  0.5        0.506      0.         0.33589379]
 [0.         0.5        0.63753846 0.         0.38931475 0.
  0.5        0.61353846 0.         0.38016841]
 [0.         0.5        0.61753846 0.         0.3816928  0.
  0.5        0.55784615 0.         0.35807692]
 [0.         0.5        0.60953846 0.         0.37864402 0.
  0.5        0.65338462 0.         0.3951098 ]]
DUMMY mean:
[0.         0.5        0.6196337  0.         0.38110493 0.
 0.5        0.59762637 0.         0.37291557]
---------------------------
Current folder: C:\Users\Javier\Dropbox\c_sldl_3_1_4
-------------------------------------
----- RESULTS ------
-------------------------------------
Window size (sec):  4.992
step (sec):  4.992
overlap:  True
perc. of overlap:  0.0
Number of windows / instances:  251
---------------------------
ALG Means: 
-rows: alg : KNN = 0; DT = 1; RF = 2; SVM = 3; GBM = 4; BDDAE = 5; DUMMY = 5
columns:
'val_cohen','val_uar', 'val_acc', 'val_gm',  'val_f1',  'aro_cohen','aro_uar', 'aro_acc', 'aro_gm',  'aro_f1'
-------------------------------------------------------------
  v_c   v_u   v_a   v_g   v_f1  a_c   a_u   a_a   a_g   a_f1
[[0.204 0.599 0.658 0.534 0.594 0.232 0.612 0.652 0.575 0.609]
 [0.186 0.59  0.624 0.555 0.585 0.257 0.624 0.643 0.606 0.619]
 [0.206 0.605 0.654 0.548 0.601 0.257 0.622 0.652 0.602 0.619]
 [0.073 0.534 0.651 0.143 0.448 0.071 0.535 0.634 0.148 0.442]
 [0.198 0.593 0.689 0.407 0.56  0.24  0.613 0.684 0.481 0.589]
 [0.    0.    0.    0.    0.    0.    0.    0.    0.    0.   ]
 [0.    0.5   0.62  0.    0.381 0.    0.5   0.598 0.    0.373]]
Elapsed time: 552.4618096431096 minutes
Elapsed time: 9.20769682738516 hours
