2024-03-06 16:35:15.433378: I tensorflow/core/util/port.cc:113] oneDNN custom operations are on. You may see slightly different numerical results due to floating-point round-off errors from different computation orders. To turn them off, set the environment variable `TF_ENABLE_ONEDNN_OPTS=0`.
2024-03-06 16:35:19.024033: I tensorflow/core/util/port.cc:113] oneDNN custom operations are on. You may see slightly different numerical results due to floating-point round-off errors from different computation orders. To turn them off, set the environment variable `TF_ENABLE_ONEDNN_OPTS=0`.
2024-03-06 16:35:27.947133: I tensorflow/core/platform/cpu_feature_guard.cc:210] This TensorFlow binary is optimized to use available CPU instructions in performance-critical operations.
To enable the following instructions: AVX2 FMA, in other operations, rebuild TensorFlow with the appropriate compiler flags.
    
    
-------------------------------
participant:  1
-------------------------------
    
    
participant:  1
corriendo en PC gamer:
Window size (sec):  8.0
step (sec):  8.0
overlap:  True
perc. of overlap:  0.0
Nearest multiple of 16 to 8000 is: 8000
Nearest multiple of 16 to 8000 is: 8000
['gsr_chunks', 'ppg_chunks', 'val_chunks', 'aro_chunks', 'time_chunks', 'tag_chunks', 'video']
C:\Users\Javier\Dropbox\c_sldl_3_1\functions.py:880: FutureWarning: ChainedAssignmentError: behaviour will change in pandas 3.0!

[1m1/1[0m [32m━━━━━━━━━━━━━━━━━━━━[0m[37m[0m [1m0s[0m 109ms/step
predicted [0.3229958  0.59657764 0.6995307  0.58446556 0.6936933  0.39064276
 0.72913194 0.80475825 0.6956488  0.7299353  0.09674272 0.3488197
 0.6922976  0.6931929  0.6887855  0.64691687 0.73736334 0.8528415
 0.63903105 0.84630096 0.74098945 0.16760014 0.7300868  0.7747458
 0.5712527  0.7021713  0.54135203 0.580657   0.55319726 0.5736923
 0.35379705]
predicted [0 1 1 1 1 0 1 1 1 1 0 0 1 1 1 1 1 1 1 1 1 0 1 1 1 1 1 1 1 1 0]
expected [False  True False  True  True  True  True  True  True  True False False
  True False  True  True  True  True False False False False  True  True
  True False  True False  True  True False]
accuracy: 0.7419354838709677
confusion matrix: 
[[ 5  7]
 [ 1 18]]
              precision    recall  f1-score   support

       False       0.83      0.42      0.56        12
        True       0.72      0.95      0.82        19

    accuracy                           0.74        31
   macro avg       0.78      0.68      0.69        31
weighted avg       0.76      0.74      0.72        31

macro avg f1-score: 0.6868686868686869
macro avg (UAR): 0.6820175438596491
Sensitivity:  0.4166666666666667
Specificity:  0.9473684210526315
g-mean:  0.6282808624375432
-------- Model Performance ----------: 
accuracy:  [0.74193548 0.74193548 0.70967742 0.70967742 0.74193548 0.70967742
 0.38709677 0.67741935 0.67741935 0.74193548]
gmean:  [0.66885605 0.66885605 0.61057925 0.64888568 0.72547625 0.5
 0.37463432 0.59234888 0.59234888 0.62828086]
f1_score:  [0.7047619  0.7047619  0.65850673 0.67595819 0.72807018 0.60425532
 0.37671958 0.63095238 0.63095238 0.68686869]
UAR:  [0.69736842 0.69736842 0.65570175 0.67105263 0.72807018 0.625
 0.37719298 0.62938596 0.62938596 0.68201754]
Cohen Kappa score:  [ 0.42056075  0.42056075  0.33729216  0.35862069  0.45614035  0.29007634
 -0.23480084  0.27570093  0.27570093  0.40096618]
arousal and valece = ok
------------- Evaluating model --------------
-------------------------------------
-------------------------------------
participant:  30
-------------------------------------
----- RESULTS ------
-------------------------------------
Window size (sec):  8.0
step (sec):  8.0
overlap:  True
perc. of overlap:  0.0
Number of windows / instances:  155
-rows: alg : KNN = 0; DT = 1; RF = 2; SVM = 3; GBM = 4; BDDAE = 5; DUMMY = 5
columns:
'val_cohen','val_uar', 'val_acc', 'val_gm',  'val_f1',  'aro_cohen','aro_uar', 'aro_acc', 'aro_gm',  'aro_f1'
-------------------------------------------------------------
  v_c   v_u   v_a   v_g   v_f1  a_c   a_u   a_a   a_g   a_f1
[[0.274 0.635 0.658 0.611 0.629 0.222 0.607 0.651 0.584 0.607]
 [0.287 0.673 0.682 0.642 0.667 0.401 0.701 0.715 0.703 0.691]
 [0.252 0.553 0.583 0.61  0.55  0.242 0.615 0.657 0.51  0.616]
 [0.    0.5   0.612 0.    0.38  0.    0.5   0.652 0.    0.395]
 [0.177 0.578 0.663 0.357 0.533 0.198 0.585 0.691 0.407 0.559]
 [0.3   0.639 0.684 0.601 0.64  0.351 0.676 0.706 0.658 0.673]
 [0.    0.5   0.612 0.    0.38  0.    0.5   0.652 0.    0.395]]
participant performance loaded
    
    
-------------------------------
LAST participant's saved data: 
30
-------------------------------
    
    
---------------------------
KNN performance:
[[ 0.35018738  0.67480159  0.67791667  0.64400547  0.66076649  0.41227918
   0.70265152  0.79375     0.65923021  0.70105243]
 [ 0.15743852  0.57886905  0.58458333  0.5598901   0.57193818  0.16816993
   0.58111111  0.625       0.52680851  0.57096499]
 [ 0.42727336  0.71015873  0.73625     0.68736111  0.70844982  0.35950614
   0.67946429  0.67875     0.65680007  0.66888623]
 [ 0.25950413  0.63035714  0.63208333  0.60521291  0.6185705   0.28506433
   0.6422619   0.64458333  0.6365634   0.63997333]
 [ 0.05010806  0.52666667  0.57416667  0.43679929  0.51020022 -0.02169331
   0.48928571  0.49        0.46921873  0.47954383]
 [ 0.60665884  0.77840909  0.84625     0.74895899  0.79888149  0.17716578
   0.59246032  0.6125      0.52711662  0.57406544]
 [ 0.23891859  0.61113636  0.70875     0.50560905  0.60344155  0.06552412
   0.53340909  0.66416667  0.31672699  0.51082069]
 [ 0.14753872  0.57321429  0.57583333  0.56027084  0.56808505  0.07526342
   0.53759921  0.5425      0.51690782  0.5289345 ]
 [-0.11416525  0.44230159  0.46541667  0.38933081  0.43411714  0.41482445
   0.70277778  0.72333333  0.67639276  0.69876796]
 [ 0.64067279  0.82055556  0.82666667  0.80854814  0.81533265  0.22542721
   0.61333333  0.63166667  0.57940162  0.6021709 ]
 [ 0.17219286  0.58710317  0.59458333  0.5655036   0.57825549  0.20421581
   0.6046627   0.6075      0.57188077  0.58789351]
 [ 0.09282227  0.54666667  0.62041667  0.43601919  0.528722    0.04277403
   0.52162698  0.52291667  0.49588891  0.50918056]
 [ 0.10435506  0.54893939  0.63833333  0.39126337  0.5215804   0.16454842
   0.58333333  0.60541667  0.54723169  0.5684325 ]
 [ 0.39079005  0.69134921  0.71583333  0.67132833  0.69176134  0.28811887
   0.63909091  0.70958333  0.55938786  0.63292631]
 [ 0.5033885   0.75404762  0.75458333  0.74471355  0.74741755  0.21892919
   0.60444444  0.63125     0.57574255  0.60066426]
 [-0.02813853  0.48489011  0.82583333  0.          0.4516913   0.37996486
   0.69238095  0.69625     0.68453944  0.68597314]
 [ 0.31576014  0.6475      0.73041667  0.59033547  0.64780294  0.35868985
   0.68035714  0.68291667  0.67102297  0.6760525 ]
 [ 0.20752658  0.60060606  0.67041667  0.53958643  0.59443582  0.1447448
   0.57888889  0.62041667  0.46793335  0.55455371]
 [ 0.20063492  0.5875      0.78666667  0.34839471  0.57514615  0.08745282
   0.54375     0.54208333  0.53329545  0.53749488]
 [ 0.12763908  0.56339286  0.56083333  0.50445452  0.54113463  0.20051215
   0.595       0.665       0.50206714  0.58563987]
 [ 0.05105844  0.52142857  0.55166667  0.48577331  0.51620654  0.10148842
   0.55227273  0.7225      0.28182046  0.51888278]
 [ 0.2894685   0.64206349  0.65125     0.61826528  0.63501261  0.49218134
   0.74583333  0.74791667  0.72798618  0.73881987]
 [ 0.17373542  0.58581349  0.58875     0.56966114  0.57870647  0.14073702
   0.57113095  0.57583333  0.56025052  0.566228  ]
 [ 0.42003578  0.69409091  0.775       0.64474279  0.70035061  0.36274168
   0.68125     0.68291667  0.66121328  0.67316405]
 [ 0.02784007  0.51444444  0.56208333  0.43279067  0.49852453  0.42206077
   0.70722222  0.73416667  0.67487524  0.70220059]
 [ 0.19617664  0.59666667  0.64416667  0.52493897  0.58654197  0.22976997
   0.61339286  0.63375     0.58567586  0.60808839]
 [ 0.27366946  0.635       0.6575      0.61082526  0.62920965  0.22216661
   0.60712121  0.65083333  0.58369124  0.607295  ]]
KNN mean:
[0.23270705 0.61288788 0.6650463  0.54165123 0.60415863 0.2304677
 0.61467085 0.64583333 0.56480258 0.60476556]
---------------------------
---------------------------
DT performance:
[[ 0.36870303  0.67103175  0.67166667  0.6513005   0.66527679  0.36216428
   0.68106061  0.75583333  0.66373133  0.66808456]
 [ 0.07161234  0.56974206  0.57291667  0.54489174  0.56021937  0.21423747
   0.65222222  0.65625     0.64324457  0.64031565]
 [ 0.29204645  0.61238095  0.62541667  0.60801259  0.60226674  0.32204897
   0.63928571  0.63875     0.61703453  0.63524816]
 [ 0.35439129  0.68928571  0.68875     0.67609255  0.68563268  0.43266011
   0.68730159  0.69        0.68858156  0.68036347]
 [ 0.26538856  0.64388889  0.66416667  0.59563484  0.6410334   0.17876269
   0.58392857  0.5875      0.57375786  0.57550141]
 [ 0.42209906  0.75159091  0.79416667  0.71569143  0.75540947  0.35215681
   0.6915873   0.6975      0.69836679  0.68375127]
 [ 0.20809556  0.60181818  0.65666667  0.50896128  0.58239155  0.09761975
   0.5675      0.64541667  0.54627765  0.56709533]
 [ 0.35746815  0.68928571  0.69        0.65795373  0.68289737  0.27075887
   0.61240079  0.62625     0.59834044  0.60571243]
 [-0.04298973  0.49619048  0.50291667  0.49905116  0.4882777   0.36147706
   0.68460317  0.68291667  0.70055615  0.67265827]
 [ 0.58416622  0.77555556  0.78708333  0.72443689  0.77270987  0.27449402
   0.63690476  0.64625     0.63251608  0.63047845]
 [ 0.12759353  0.56755952  0.57458333  0.55808561  0.56330717  0.27153272
   0.61319444  0.62041667  0.61638288  0.60675611]
 [ 0.18344471  0.57166667  0.60583333  0.54981615  0.5646099   0.1656948
   0.58501984  0.58458333  0.56323373  0.57741448]
 [ 0.23210703  0.57651515  0.61291667  0.56107295  0.56346393  0.14545358
   0.56555556  0.59333333  0.56598146  0.55012494]
 [ 0.30870014  0.62293651  0.62875     0.59791404  0.61482436  0.18911246
   0.57454545  0.63708333  0.51056248  0.57086735]
 [ 0.46234689  0.74571429  0.74833333  0.74586614  0.73807688  0.30442918
   0.65960317  0.67        0.66334176  0.65805743]
 [ 0.123006    0.56849817  0.77916667  0.37121887  0.56849909  0.28133937
   0.64674603  0.65291667  0.65986939  0.63692996]
 [ 0.30459786  0.62931818  0.69166667  0.56694295  0.6224119   0.35417919
   0.69305556  0.695       0.64223762  0.68702108]
 [ 0.15063195  0.55484848  0.60666667  0.50998798  0.54724357  0.233279
   0.59722222  0.62583333  0.5805715   0.5903154 ]
 [-0.07145503  0.51666667  0.67125     0.2888321   0.50650405 -0.1097333
   0.45803571  0.45791667  0.43058013  0.45008339]
 [ 0.22154698  0.63839286  0.63916667  0.61686557  0.63661307  0.07074257
   0.55090909  0.57875     0.56234659  0.53565215]
 [ 0.05656651  0.48634921  0.51        0.46308934  0.47967876 -0.02783206
   0.51893939  0.61291667  0.34997944  0.49873748]
 [ 0.18231599  0.61071429  0.6175      0.59281674  0.59771171  0.38153594
   0.72261905  0.72333333  0.6996144   0.72031873]
 [ 0.00903742  0.47867063  0.485       0.45749807  0.47256048  0.24266281
   0.59791667  0.60125     0.58330365  0.58800988]
 [ 0.42301407  0.70090909  0.74166667  0.69092839  0.69989786  0.20962503
   0.59285714  0.59291667  0.56598569  0.58559524]
 [ 0.1436475   0.575       0.61416667  0.54003329  0.56723482  0.38879636
   0.67039683  0.67583333  0.67225356  0.65770573]
 [ 0.08284928  0.56        0.57416667  0.48033289  0.54266185  0.11653033
   0.56051587  0.56791667  0.54750326  0.54669244]
 [ 0.28734763  0.67333333  0.68208333  0.64153159  0.66744849  0.40071382
   0.70090909  0.71458333  0.70316721  0.69147332]]
DT mean:
[0.22623257 0.61399494 0.64580247 0.57092072 0.60699492 0.24016451
 0.62017911 0.63819444 0.60293784 0.61151719]
---------------------------
---------------------------
RF performance:
[[ 0.32183766  0.61061508  0.61416667  0.62422457  0.60471247  0.37448816
   0.67765152  0.80041667  0.60757998  0.67236944]
 [ 0.26588118  0.6015873   0.60375     0.57793028  0.58868331  0.23868753
   0.63333333  0.65208333  0.52977541  0.62770778]
 [ 0.32078898  0.67404762  0.70416667  0.6808371   0.67088822  0.37109147
   0.71160714  0.71041667  0.62116414  0.70162657]
 [ 0.22969259  0.65535714  0.6575      0.59517062  0.65181839  0.26107074
   0.66865079  0.67083333  0.61232467  0.66143159]
 [ 0.1964877   0.60833333  0.63333333  0.60184826  0.60297329  0.30344076
   0.57589286  0.57583333  0.5851907   0.56742979]
 [ 0.58521418  0.78022727  0.82666667  0.72069678  0.78554825  0.35147193
   0.72333333  0.74208333  0.67947754  0.72099834]
 [ 0.13287971  0.58613636  0.64583333  0.51444145  0.57475051  0.27160693
   0.6275      0.71541667  0.6285142   0.63034105]
 [ 0.14984032  0.59285714  0.59333333  0.58515656  0.5833504   0.28131737
   0.56438492  0.56833333  0.55492642  0.55494571]
 [-0.05525954  0.55134921  0.57458333  0.47370753  0.54092069  0.39866386
   0.67928571  0.70375     0.62891325  0.67331349]
 [ 0.5986215   0.84222222  0.84541667  0.70964697  0.83689053  0.19463852
   0.57642857  0.59916667  0.57753989  0.57049614]
 [ 0.09868182  0.56150794  0.56708333  0.50076202  0.55358537  0.105846
   0.5625      0.57416667  0.53269619  0.5583335 ]
 [ 0.02200617  0.555       0.61208333  0.50459344  0.54653531  0.09059878
   0.52688492  0.53416667  0.58425965  0.51775331]
 [ 0.31795811  0.63348485  0.69541667  0.46938065  0.63498412  0.19792901
   0.57444444  0.61291667  0.5316312   0.56504764]
 [ 0.37975004  0.65079365  0.67166667  0.62928995  0.65003478  0.29987815
   0.63363636  0.7025      0.547719    0.62560959]
 [ 0.56633661  0.79452381  0.80708333  0.75933466  0.78831692  0.40654807
   0.68222222  0.69625     0.58908122  0.68268485]
 [ 0.03484906  0.5040293   0.79958333  0.28254314  0.48313355  0.31132985
   0.64047619  0.65833333  0.62195774  0.63236378]
 [ 0.31431761  0.60181818  0.67833333  0.57779587  0.58603035  0.34912401
   0.7014881   0.7075      0.64971883  0.69914532]
 [ 0.22572064  0.59484848  0.64458333  0.48323189  0.59307477  0.22057744
   0.555       0.59458333  0.5838787   0.54728261]
 [ 0.06097884  0.4875      0.69        0.27578553  0.46980823  0.03434498
   0.56071429  0.55708333  0.51773644  0.55221052]
 [-0.00182648  0.57410714  0.57541667  0.57656616  0.57160831  0.21762303
   0.59712121  0.65125     0.57364139  0.5905    ]
 [-0.0138466   0.53674603  0.56083333  0.47812367  0.53426759  0.10877934
   0.51060606  0.69666667  0.49315855  0.48550163]
 [ 0.21768869  0.6234127   0.63333333  0.68235495  0.61542458  0.37591843
   0.71279762  0.71583333  0.70675817  0.70982017]
 [ 0.029546    0.53492063  0.5375      0.52958464  0.5244526   0.05510622
   0.55446429  0.56708333  0.57094075  0.55030558]
 [ 0.32804345  0.60545455  0.695       0.59106272  0.604414    0.42384223
   0.66071429  0.66208333  0.65711284  0.65085238]
 [ 0.24449052  0.49222222  0.54833333  0.4930123   0.48582482  0.42298876
   0.66928571  0.68291667  0.62581856  0.66365028]
 [ 0.1865108   0.59388889  0.63708333  0.58674897  0.59077149  0.3046208
   0.6780754   0.68583333  0.63432962  0.6699825 ]
 [ 0.25171428  0.55277778  0.58291667  0.61037386  0.55033317  0.2421645
   0.61545455  0.65708333  0.51004892  0.61639014]]
RF mean:
[0.22255199 0.60739885 0.65314815 0.55978535 0.60085689 0.26717396
 0.62496125 0.65535494 0.59095904 0.61844792]
---------------------------
---------------------------
SVM performance:
[[ 0.09870804  0.54672619  0.58        0.26391827  0.45512422  0.
   0.5         0.755       0.          0.43009768]
 [-0.01037875  0.49464286  0.53458333  0.03779645  0.3590352   0.
   0.5         0.6125      0.          0.37980769]
 [ 0.          0.5         0.60625     0.          0.37734615  0.3414006
   0.66964286  0.6725      0.65584071  0.66479339]
 [ 0.23293808  0.61517857  0.62        0.50894565  0.57379536  0.05917329
   0.52767857  0.56708333  0.14874468  0.40588779]
 [ 0.          0.5         0.6125      0.          0.37980769  0.
   0.5         0.51        0.          0.33761528]
 [ 0.46190685  0.6975      0.80708333  0.61445405  0.71173349  0.
   0.5         0.6         0.          0.37488462]
 [ 0.          0.5         0.68375     0.          0.4060114   0.
   0.5         0.69708333  0.          0.41062678]
 [ 0.15882143  0.57946429  0.58125     0.49242429  0.53830246  0.
   0.5         0.54166667  0.          0.35124638]
 [ 0.          0.5         0.5875      0.          0.36996154  0.35371934
   0.66190476  0.71583333  0.5795113   0.64976504]
 [ 0.64174471  0.82055556  0.82625     0.81155288  0.81732646  0.
   0.5         0.59375     0.          0.37242308]
 [ 0.          0.5         0.56125     0.          0.35934783  0.
   0.5         0.56125     0.          0.35934783]
 [ 0.          0.5         0.64583333  0.          0.39230769  0.
   0.5         0.52916667  0.          0.34591304]
 [ 0.          0.5         0.65833333  0.          0.3968661   0.
   0.5         0.6325      0.          0.38730769]
 [ 0.          0.5         0.59375     0.          0.37242308  0.
   0.5         0.67708333  0.          0.4037037 ]
 [ 0.62259656  0.80785714  0.82        0.79718292  0.8087027   0.
   0.5         0.59375     0.          0.37242308]
 [ 0.          0.5         0.85208333  0.          0.45995895  0.
   0.5         0.6         0.          0.37488462]
 [ 0.          0.5         0.69041667  0.          0.40831909  0.40790304
   0.69940476  0.71416667  0.66832043  0.69348374]
 [ 0.          0.5         0.65833333  0.          0.3968661   0.
   0.5         0.62583333  0.          0.38480769]
 [ 0.          0.5         0.775       0.          0.43650794  0.14599604
   0.57321429  0.56875     0.38899558  0.49609848]
 [-0.00543256  0.49732143  0.48375     0.15480847  0.37120984  0.
   0.5         0.65208333  0.          0.39458689]
 [ 0.          0.5         0.5875      0.          0.36996154  0.
   0.5         0.74166667  0.          0.42582418]
 [ 0.11015408  0.55059524  0.59291667  0.33614082  0.48101694  0.56626538
   0.78244048  0.78541667  0.77425338  0.78075078]
 [ 0.          0.5         0.53541667  0.          0.34857971  0.
   0.5         0.56125     0.          0.35934783]
 [ 0.          0.5         0.69041667  0.          0.40831909  0.46959035
   0.73482143  0.73583333  0.72057917  0.72957463]
 [ 0.          0.5         0.63916667  0.          0.38980769  0.
   0.5         0.6         0.          0.37488462]
 [ 0.          0.5         0.6325      0.          0.38730769  0.
   0.5         0.56791667  0.          0.36206522]
 [ 0.          0.5         0.6125      0.          0.37980769  0.
   0.5         0.65208333  0.          0.39458689]]
SVM mean:
[0.08559476 0.54110523 0.64697531 0.14878607 0.4502131  0.08681659
 0.54255952 0.63200617 0.14578686 0.44506439]
---------------------------
---------------------------
GBM performance:
[[0.27493052 0.64712302 0.66041667 0.61199702 0.63806238 0.22877494
  0.59507576 0.78833333 0.34571547 0.58135218]
 [0.2700103  0.63422619 0.63708333 0.62550976 0.63121104 0.24451321
  0.61166667 0.67666667 0.48693899 0.58837451]
 [0.44398241 0.70960317 0.75416667 0.66052911 0.71387604 0.45091068
  0.73303571 0.72958333 0.71144432 0.72338451]
 [0.31871385 0.65892857 0.66208333 0.64652133 0.65434407 0.43854363
  0.71855159 0.7225     0.70678412 0.71513072]
 [0.36793542 0.66777778 0.73583333 0.55089237 0.65236956 0.24379033
  0.62142857 0.62541667 0.56682351 0.60549699]
 [0.50789901 0.72340909 0.81291667 0.67510862 0.74531282 0.53080684
  0.75452381 0.78291667 0.73149618 0.75926635]
 [0.06654741 0.52727273 0.67708333 0.22951034 0.48157686 0.00839552
  0.50295455 0.69041667 0.05       0.4275114 ]
 [0.20784178 0.60892857 0.61416667 0.57655273 0.59877118 0.08954049
  0.54285714 0.55541667 0.50009517 0.52937305]
 [0.02444673 0.50849206 0.56833333 0.31438547 0.45616742 0.31472157
  0.65071429 0.68291667 0.58918161 0.6349463 ]
 [0.56109084 0.77166667 0.79333333 0.74590605 0.77079012 0.18100181
  0.58301587 0.63916667 0.42017367 0.54441277]
 [0.04245665 0.53809524 0.56333333 0.44468685 0.51144736 0.25269886
  0.62093254 0.65791667 0.50773499 0.59055671]
 [0.010349   0.505      0.63916667 0.09559708 0.42339478 0.20142236
  0.59900794 0.60583333 0.57066889 0.58874601]
 [0.02363006 0.5080303  0.62583333 0.284195   0.47159232 0.18363756
  0.57111111 0.67291667 0.35394863 0.52121105]
 [0.19435117 0.59420635 0.66       0.42602695 0.56152833 0.10057546
  0.54181818 0.6775     0.2884142  0.50699945]
 [0.5598424  0.77833333 0.79291667 0.75336032 0.77515055 0.47469883
  0.74238095 0.76083333 0.72099296 0.73883183]
 [0.03507149 0.49615385 0.84541667 0.         0.45797482 0.24976391
  0.61968254 0.65208333 0.5787267  0.61054769]
 [0.20936565 0.58590909 0.73583333 0.35548181 0.56149922 0.42524217
  0.71458333 0.7275     0.69046972 0.71221827]
 [0.07875552 0.53424242 0.65833333 0.28158912 0.49676554 0.21655017
  0.59555556 0.67708333 0.47832166 0.57359276]
 [0.         0.5        0.775      0.         0.43650794 0.15350066
  0.57678571 0.57583333 0.5703874  0.56999084]
 [0.24742793 0.61785714 0.61916667 0.59270122 0.60585575 0.30639823
  0.63833333 0.72208333 0.5546628  0.63307679]
 [0.09075538 0.53468254 0.60083333 0.27553136 0.46898057 0.
  0.5        0.74166667 0.         0.42582418]
 [0.29447752 0.63611111 0.6575     0.59773021 0.62451723 0.47530219
  0.73938492 0.73583333 0.72210654 0.72916667]
 [0.11002272 0.55496032 0.56083333 0.52608792 0.54421501 0.12949898
  0.57638889 0.59958333 0.51994913 0.55767993]
 [0.28244109 0.63022727 0.74958333 0.5171524  0.63711687 0.38946878
  0.69464286 0.69625    0.68022822 0.6889558 ]
 [0.09652941 0.54       0.65166667 0.2704414  0.48884795 0.42994826
  0.70952381 0.73583333 0.68672541 0.70933749]
 [0.12250024 0.53722222 0.62583333 0.3096483  0.49558661 0.23987067
  0.62301587 0.64458333 0.58068158 0.61334753]
 [0.17663177 0.57833333 0.66333333 0.35715812 0.53298566 0.19800459
  0.58545455 0.69083333 0.40716045 0.55882831]]
GBM mean:
[0.20807431 0.59728861 0.67925926 0.43423337 0.5717203  0.26509558
 0.628238   0.68398148 0.51925305 0.60882074]
---------------------------
---------------------------
BDDAE performance:
[[ 0.20646795  0.60357143  0.60322581  0.56392819  0.58316413  0.21476109
   0.6013587   0.72903226  0.49857939  0.59886801]
 [ 0.40163617  0.6987395   0.70967742  0.67211836  0.69144938  0.5163999
   0.75482456  0.77096774  0.7432073   0.75474917]
 [ 0.31970711  0.66644737  0.66451613  0.65886581  0.65432353  0.48519932
   0.74333333  0.74193548  0.7386372   0.74042048]
 [ 0.48908345  0.744375    0.74516129  0.73723901  0.74185451  0.2882165
   0.64243697  0.65483871  0.61709153  0.63551953]
 [-0.02085132  0.48969298  0.54193548  0.40801834  0.47340062  0.18574348
   0.59270833  0.59354839  0.58615703  0.59010425]
 [ 0.3990995   0.70238095  0.73870968  0.68204415  0.69584857 -0.01359139
   0.49495614  0.5483871   0.36717363  0.46258479]
 [ 0.3036285   0.62833333  0.7483871   0.49394397  0.62396362  0.35521779
   0.64772727  0.79354839  0.51831347  0.64884098]
 [ 0.01026415  0.50520833  0.50645161  0.48794328  0.49712305  0.28559311
   0.64453782  0.64193548  0.63705637  0.63841545]
 [ 0.08333818  0.54123932  0.56774194  0.48445637  0.52430792  0.03508372
   0.51623932  0.55483871  0.42006749  0.48570077]
 [ 0.1284212   0.55877193  0.60967742  0.48600233  0.54349941  0.3307653
   0.66965812  0.67096774  0.64919985  0.65663847]
 [ 0.03432517  0.51743697  0.53225806  0.44145329  0.48894931  0.32724384
   0.66722689  0.66129032  0.65557295  0.65731378]
 [ 0.09341686  0.54386364  0.59354839  0.50120205  0.5381755   0.3964766
   0.69770833  0.7         0.67921705  0.69069967]
 [ 0.02819293  0.50977273  0.61290323  0.31350234  0.47394057  0.01550128
   0.50477273  0.57741935  0.43649815  0.49988263]
 [ 0.19587251  0.59059829  0.63870968  0.49482105  0.56526573  0.22184935
   0.59095238  0.72258065  0.44747529  0.57773635]
 [ 0.58839138  0.7974359   0.80322581  0.77744268  0.78836812  0.22479125
   0.60192308  0.65806452  0.48731644  0.5722508 ]
 [ 0.20693817  0.58769231  0.80967742  0.42249001  0.59247453  0.10940524
   0.55811404  0.58064516  0.52775342  0.54778992]
 [ 0.27231988  0.62119048  0.73870968  0.46647126  0.60229197  0.2556452
   0.62184874  0.6516129   0.52308363  0.58923278]
 [ 0.16404627  0.57409091  0.6483871   0.50171966  0.56713338  0.06038457
   0.52872807  0.57096774  0.45101864  0.50787396]
 [ 0.01040663  0.50565476  0.7516129   0.12353261  0.46629009  0.0187468
   0.509375    0.50967742  0.49129077  0.50057057]
 [-0.03296348  0.48375     0.48387097  0.44570755  0.46535572  0.11600208
   0.55227273  0.63870968  0.45212354  0.53941673]
 [ 0.12609354  0.56452991  0.57741935  0.53252648  0.55316267  0.47329019
   0.72119565  0.81612903  0.67914288  0.73348241]
 [-0.0309161   0.48445378  0.50645161  0.38009558  0.44479634  0.0181708
   0.50854167  0.51290323  0.44958134  0.48204732]
 [ 0.25342516  0.62352941  0.63548387  0.59549167  0.61579831  0.4559077
   0.7302521   0.72903226  0.71449309  0.72142648]
 [ 0.4766919   0.71380952  0.79677419  0.67057843  0.73105808  0.49372334
   0.74583333  0.7483871   0.7377191   0.74381914]
 [ 0.01001749  0.505       0.56451613  0.44477093  0.49681473  0.41018134
   0.69714912  0.73225806  0.67448387  0.70083683]
 [-0.13536582  0.43613636  0.52580645  0.26738592  0.41106064  0.31421439
   0.65213675  0.67419355  0.63000477  0.65138211]
 [ 0.30008182  0.63925439  0.68387097  0.60102662  0.64018072  0.35122154
   0.67636364  0.70645161  0.65846522  0.6727812 ]]
BDDAE mean:
[0.18080627 0.58655406 0.64217443 0.50573252 0.57296486 0.2572646
 0.62489536 0.66260454 0.57298976 0.61482906]
---------------------------
---------------------------
DUMMY performance:
[[0.         0.5        0.54166667 0.         0.35124638 0.
  0.5        0.755      0.         0.43009768]
 [0.         0.5        0.54166667 0.         0.35124638 0.
  0.5        0.6125     0.         0.37980769]
 [0.         0.5        0.60625    0.         0.37734615 0.
  0.5        0.51       0.         0.33761528]
 [0.         0.5        0.51       0.         0.33761528 0.
  0.5        0.54166667 0.         0.35124638]
 [0.         0.5        0.6125     0.         0.37980769 0.
  0.5        0.51       0.         0.33761528]
 [0.         0.5        0.68375    0.         0.4060114  0.
  0.5        0.6        0.         0.37488462]
 [0.         0.5        0.68375    0.         0.4060114  0.
  0.5        0.69708333 0.         0.41062678]
 [0.         0.5        0.48333333 0.         0.32575758 0.
  0.5        0.54166667 0.         0.35124638]
 [0.         0.5        0.5875     0.         0.36996154 0.
  0.5        0.5875     0.         0.36996154]
 [0.         0.5        0.6125     0.         0.37980769 0.
  0.5        0.59375    0.         0.37242308]
 [0.         0.5        0.56125    0.         0.35934783 0.
  0.5        0.56125    0.         0.35934783]
 [0.         0.5        0.64583333 0.         0.39230769 0.
  0.5        0.52916667 0.         0.34591304]
 [0.         0.5        0.65833333 0.         0.3968661  0.
  0.5        0.6325     0.         0.38730769]
 [0.         0.5        0.59375    0.         0.37242308 0.
  0.5        0.67708333 0.         0.4037037 ]
 [0.         0.5        0.5875     0.         0.36996154 0.
  0.5        0.59375    0.         0.37242308]
 [0.         0.5        0.85208333 0.         0.45995895 0.
  0.5        0.6        0.         0.37488462]
 [0.         0.5        0.69041667 0.         0.40831909 0.
  0.5        0.54166667 0.         0.35124638]
 [0.         0.5        0.65833333 0.         0.3968661  0.
  0.5        0.62583333 0.         0.38480769]
 [0.         0.5        0.775      0.         0.43650794 0.
  0.5        0.48333333 0.         0.32575758]
 [0.         0.5        0.50333333 0.         0.33465086 0.
  0.5        0.65208333 0.         0.39458689]
 [0.         0.5        0.5875     0.         0.36996154 0.
  0.5        0.74166667 0.         0.42582418]
 [0.         0.5        0.55458333 0.         0.35663043 0.
  0.5        0.52291667 0.         0.34324638]
 [0.         0.5        0.53541667 0.         0.34857971 0.
  0.5        0.56125    0.         0.35934783]
 [0.         0.5        0.69041667 0.         0.40831909 0.
  0.5        0.51       0.         0.33761528]
 [0.         0.5        0.63916667 0.         0.38980769 0.
  0.5        0.6        0.         0.37488462]
 [0.         0.5        0.6325     0.         0.38730769 0.
  0.5        0.56791667 0.         0.36206522]
 [0.         0.5        0.6125     0.         0.37980769 0.
  0.5        0.65208333 0.         0.39458689]]
DUMMY mean:
[0.         0.5        0.61632716 0.         0.3797198  0.
 0.5        0.59265432 0.         0.37085458]
---------------------------
-------------------------------------
----- RESULTS ------
-------------------------------------
Window size (sec):  8.0
step (sec):  8.0
overlap:  True
perc. of overlap:  0.0
Number of windows / instances:  155
---------------------------
ALG Means: 
-rows: alg : KNN = 0; DT = 1; RF = 2; SVM = 3; GBM = 4; BDDAE = 5; DUMMY = 5
columns:
'val_cohen','val_uar', 'val_acc', 'val_gm',  'val_f1',  'aro_cohen','aro_uar', 'aro_acc', 'aro_gm',  'aro_f1'
-------------------------------------------------------------
  v_c   v_u   v_a   v_g   v_f1  a_c   a_u   a_a   a_g   a_f1
[[0.233 0.613 0.665 0.542 0.604 0.23  0.615 0.646 0.565 0.605]
 [0.226 0.614 0.646 0.571 0.607 0.24  0.62  0.638 0.603 0.612]
 [0.223 0.607 0.653 0.56  0.601 0.267 0.625 0.655 0.591 0.618]
 [0.086 0.541 0.647 0.149 0.45  0.087 0.543 0.632 0.146 0.445]
 [0.208 0.597 0.679 0.434 0.572 0.265 0.628 0.684 0.519 0.609]
 [0.181 0.587 0.642 0.506 0.573 0.257 0.625 0.663 0.573 0.615]
 [0.    0.5   0.616 0.    0.38  0.    0.5   0.593 0.    0.371]]
Elapsed time: 194.41782834132513 minutes
Elapsed time: 3.2402971390220854 hours
