2024-03-07 09:42:41.401220: I tensorflow/core/util/port.cc:113] oneDNN custom operations are on. You may see slightly different numerical results due to floating-point round-off errors from different computation orders. To turn them off, set the environment variable `TF_ENABLE_ONEDNN_OPTS=0`.
2024-03-07 09:42:44.947956: I tensorflow/core/util/port.cc:113] oneDNN custom operations are on. You may see slightly different numerical results due to floating-point round-off errors from different computation orders. To turn them off, set the environment variable `TF_ENABLE_ONEDNN_OPTS=0`.
2024-03-07 09:42:54.157418: I tensorflow/core/platform/cpu_feature_guard.cc:210] This TensorFlow binary is optimized to use available CPU instructions in performance-critical operations.
To enable the following instructions: AVX2 FMA, in other operations, rebuild TensorFlow with the appropriate compiler flags.
    
    
-------------------------------
participant:  1
-------------------------------
    
    
participant:  1
corriendo en PC gamer:
Window size (sec):  8.0
step (sec):  8.0
overlap:  True
perc. of overlap:  0.0
Number of windows / instances:  155
Nearest multiple of 16 to 8000 is: 8000
Nearest multiple of 16 to 8000 is: 8000
['gsr_chunks', 'ppg_chunks', 'val_chunks', 'aro_chunks', 'time_chunks', 'tag_chunks', 'video']
C:\Users\Javier\Dropbox\c_sldl_1_2_5\functions.py:880: FutureWarning: ChainedAssignmentError: behaviour will change in pandas 3.0!

[1m1/1[0m [32m━━━━━━━━━━━━━━━━━━━━[0m[37m[0m [1m0s[0m 109ms/step
predicted [0.34453687 0.76768243 0.7765803  0.39454487 0.8390337  0.35419086
 0.8033249  0.47400954 0.67038107 0.82498896 0.09229867 0.34187093
 0.67975104 0.631866   0.85109717 0.57606447 0.7647472  0.8453641
 0.44519183 0.88749737 0.78218067 0.13455987 0.7719785  0.77172345
 0.5258361  0.6316862  0.6721971  0.60932946 0.70857096 0.5116849
 0.34791526]
predicted [0 1 1 0 1 0 1 0 1 1 0 0 1 1 1 1 1 1 0 1 1 0 1 1 1 1 1 1 1 1 0]
expected [False  True False  True  True  True  True  True  True  True False False
  True False  True  True  True  True False False False False  True  True
  True False  True False  True  True False]
accuracy: 0.7096774193548387
confusion matrix: 
[[ 6  6]
 [ 3 16]]
              precision    recall  f1-score   support

       False       0.67      0.50      0.57        12
        True       0.73      0.84      0.78        19

    accuracy                           0.71        31
   macro avg       0.70      0.67      0.68        31
weighted avg       0.70      0.71      0.70        31

macro avg f1-score: 0.6759581881533101
macro avg (UAR): 0.6710526315789473
Sensitivity:  0.5
Specificity:  0.8421052631578947
g-mean:  0.6488856845230502
-------- Model Performance ----------: 
accuracy:  [0.77419355 0.83870968 0.64516129 0.64516129 0.77419355 0.61290323
 0.70967742 0.70967742 0.67741935 0.70967742]
gmean:  [0.72244711 0.76376262 0.60697698 0.60697698 0.72244711 0.51298918
 0.56195149 0.61057925 0.62828086 0.64888568]
f1_score:  [0.74796748 0.81028152 0.61984392 0.61984392 0.74796748 0.55714286
 0.63529412 0.65850673 0.64772727 0.67595819]
UAR:  [0.73903509 0.79166667 0.61842105 0.61842105 0.73903509 0.56140351
 0.64035088 0.65570175 0.64473684 0.67105263]
Cohen Kappa score:  [0.50114943 0.63182898 0.24053452 0.24053452 0.50114943 0.13084112
 0.31449631 0.33729216 0.29864253 0.35862069]
------------- Evaluating model --------------
-------------------------------------
-------------------------------------
participant:  30
-------------------------------------
----- RESULTS ------
-------------------------------------
Window size (sec):  8.0
step (sec):  8.0
overlap:  True
perc. of overlap:  0.0
Number of windows / instances:  155
-rows: alg : KNN = 0; DT = 1; RF = 2; SVM = 3; GBM = 4; BDDAE = 5; DUMMY = 5
columns:
'val_cohen','val_uar', 'val_acc', 'val_gm',  'val_f1',  'aro_cohen','aro_uar', 'aro_acc', 'aro_gm',  'aro_f1'
-------------------------------------------------------------
  v_c   v_u   v_a   v_g   v_f1  a_c   a_u   a_a   a_g   a_f1
[[ 0.615  0.816  0.812  0.814  0.806  0.527  0.75   0.794  0.728  0.76 ]
 [ 0.546  0.758  0.768  0.73   0.755  0.57   0.779  0.793  0.736  0.773]
 [ 0.68   0.761  0.774  0.809  0.759  0.533  0.774  0.793  0.788  0.771]
 [ 0.15   0.564  0.657  0.317  0.509 -0.012  0.495  0.646  0.     0.392]
 [ 0.425  0.709  0.748  0.665  0.711  0.278  0.627  0.71   0.519  0.615]
 [ 0.356  0.668  0.71   0.639  0.672  0.01   0.504  0.632  0.124  0.424]
 [ 0.     0.5    0.612  0.     0.38   0.     0.5    0.652  0.     0.395]]
participant performance loaded
    
    
-------------------------------
LAST participant's saved data: 
30
-------------------------------
    
    
---------------------------
KNN performance:
[[ 0.39262579  0.6953373   0.70291667  0.67170709  0.68772821  0.23117988
   0.61515152  0.75125     0.42604357  0.60267819]
 [ 0.40733142  0.70625     0.70208333  0.69295265  0.69659314  0.44987675
   0.71944444  0.75333333  0.6866737   0.71732763]
 [ 0.46762592  0.72579365  0.74666667  0.69789023  0.72472879  0.48791073
   0.74553571  0.7425      0.73360173  0.738107  ]
 [ 0.38023023  0.68998016  0.69708333  0.66889361  0.68385964  0.09669636
   0.54818182  0.64625     0.40362741  0.53965039]
 [ 0.53557076  0.7584127   0.79375     0.72750614  0.76107872  0.3994624
   0.70178571  0.69666667  0.67989053  0.68879672]
 [ 0.40259583  0.70089286  0.70291667  0.69184163  0.69779121  0.5336774
   0.76746032  0.7675      0.74551481  0.75711975]
 [ 0.35560638  0.67111111  0.70916667  0.63893212  0.67141662  0.3194776
   0.66160714  0.65875     0.64788394  0.65360258]
 [ 0.85276684  0.91795455  0.94166667  0.90867553  0.9251909   0.50749695
   0.75301587  0.76        0.74142513  0.74762075]
 [ 0.30804359  0.64159091  0.73583333  0.54223862  0.63899845  0.17015896
   0.58136364  0.67666667  0.46551925  0.57720503]
 [ 0.34491771  0.67321429  0.67083333  0.66298011  0.66716737  0.13993694
   0.56964286  0.57958333  0.53455183  0.5569729 ]
 [ 0.11186133  0.55587302  0.56875     0.52615197  0.54517176  0.35592867
   0.67063492  0.69666667  0.63443863  0.66556472]
 [ 0.60169947  0.79388889  0.82041667  0.77111521  0.79558109  0.4152555
   0.7102381   0.71541667  0.69433936  0.70148264]
 [ 0.34391069  0.6718254   0.67708333  0.66354274  0.66894838  0.19936905
   0.59821429  0.61166667  0.57673638  0.59280706]
 [ 0.15698355  0.57833333  0.63416667  0.5002027   0.56758602  0.37476338
   0.68630952  0.69        0.67323255  0.6824377 ]
 [ 0.32746007  0.65969697  0.71416667  0.6242682   0.6601694   0.06086232
   0.53222222  0.56791667  0.46042466  0.51632604]
 [ 0.20974276  0.60134921  0.62583333  0.5807627   0.6003404   0.45193528
   0.71090909  0.77875     0.66686871  0.71626442]
 [ 0.46212335  0.72563492  0.7425      0.70753321  0.72511266  0.29250458
   0.64063492  0.68291667  0.57738794  0.62712409]
 [ 0.13966169  0.56465201  0.845       0.2178257   0.55006112  0.3675611
   0.68206349  0.70291667  0.66189567  0.67807527]
 [ 0.39594209  0.6825      0.76166667  0.64241684  0.69352139  0.32811872
   0.66309524  0.67        0.65472394  0.66192947]
 [ 0.3560397   0.66015152  0.74208333  0.59305868  0.66483396  0.35565205
   0.67055556  0.70458333  0.63764076  0.66674916]
 [-0.13787749  0.4375      0.66458333  0.04082483  0.40789957  0.02340248
   0.51160714  0.51166667  0.4856371   0.4997071 ]
 [ 0.44806428  0.725       0.72333333  0.70341569  0.71418719  0.16521887
   0.5780303   0.65083333  0.48229202  0.56685755]
 [ 0.12676106  0.55920635  0.595       0.50366465  0.548279    0.20766605
   0.60113636  0.735       0.45984439  0.59293043]
 [ 0.25490653  0.62609127  0.63125     0.61696354  0.62399204  0.53410724
   0.76666667  0.77208333  0.73879776  0.75558707]
 [ 0.33248909  0.66646825  0.66916667  0.66022034  0.66340829  0.66021591
   0.82946429  0.83166667  0.821212    0.82789413]
 [ 0.3704429   0.68263889  0.68958333  0.65825636  0.67480059  0.45077082
   0.72638889  0.72958333  0.71588745  0.72179928]
 [ 0.31524793  0.65340909  0.72208333  0.61436254  0.65206928  0.45634668
   0.72857143  0.7275      0.71757267  0.72367804]
 [ 0.3207316   0.65833333  0.69583333  0.61181805  0.64572979  0.55965355
   0.77365079  0.8         0.74496855  0.7714183 ]
 [ 0.13775056  0.56944444  0.60833333  0.53463843  0.56313193  0.23367117
   0.61577381  0.62583333  0.59787674  0.61015668]
 [ 0.61509396  0.81611111  0.81208333  0.81391483  0.80626587  0.52663683
   0.75        0.79375     0.72803497  0.75982804]]
KNN mean:
[0.34454499 0.66895485 0.71152778 0.61628583 0.66418809 0.34518381
 0.67031187 0.70104167 0.6264848  0.66392327]
---------------------------
---------------------------
DT performance:
[[ 0.37105587  0.69305556  0.69458333  0.65254919  0.68668393  0.39724239
   0.70643939  0.76916667  0.62354406  0.693759  ]
 [ 0.45076209  0.75515873  0.74875     0.72160993  0.74690117  0.47066482
   0.73611111  0.74666667  0.7239216   0.72509545]
 [ 0.40230252  0.70962302  0.71        0.67782665  0.70061702  0.46097378
   0.7125      0.71        0.70667586  0.70118737]
 [ 0.31942446  0.66656746  0.66875     0.65740757  0.66343562  0.17936731
   0.55795455  0.63916667  0.51649064  0.55320331]
 [ 0.4565681   0.75460317  0.7625      0.71536433  0.75070128  0.33230185
   0.64910714  0.64625     0.64957881  0.6378495 ]
 [ 0.45468716  0.71875     0.72333333  0.69214736  0.71311492  0.51448577
   0.7328373   0.73458333  0.75111256  0.72674905]
 [ 0.24948314  0.61611111  0.63875     0.5935691   0.61171724  0.16356461
   0.56339286  0.56125     0.5513237   0.55878887]
 [ 0.73951732  0.85068182  0.86458333  0.8833961   0.84341604  0.56905293
   0.80365079  0.80666667  0.7577885   0.79910445]
 [ 0.28445844  0.66        0.70208333  0.55482594  0.64656708  0.3172934
   0.68090909  0.71041667  0.63696481  0.66554408]
 [ 0.36855946  0.69732143  0.69708333  0.66597525  0.69305556  0.21025583
   0.60873016  0.61208333  0.63793358  0.60578682]
 [ 0.01102462  0.4884127   0.50833333  0.49672719  0.48105848  0.32617775
   0.73365079  0.73708333  0.6472884   0.73105309]
 [ 0.49323934  0.73611111  0.75583333  0.72353471  0.73010032  0.42467395
   0.69309524  0.705       0.69410493  0.68221812]
 [ 0.23410993  0.6218254   0.62583333  0.57659793  0.61358116  0.18266639
   0.56597222  0.57166667  0.57741214  0.55044276]
 [ 0.18980141  0.62833333  0.66583333  0.58284996  0.6272517   0.17966075
   0.60198413  0.59916667  0.58774108  0.59284933]
 [ 0.15944068  0.59484848  0.63958333  0.5313175   0.58969603  0.22265525
   0.58666667  0.60875     0.58418357  0.57161859]
 [ 0.18075357  0.62293651  0.63708333  0.57128817  0.61582277  0.50279516
   0.73818182  0.77958333  0.71171695  0.74006917]
 [ 0.54532412  0.75087302  0.76125     0.77559366  0.7455795   0.29005697
   0.64134921  0.66458333  0.65577833  0.63831337]
 [ 0.09912245  0.60155678  0.78708333  0.27621586  0.58581599  0.41964953
   0.71936508  0.73708333  0.71187111  0.71736589]
 [ 0.42519573  0.72363636  0.74125     0.73388213  0.71157569  0.43486522
   0.7296627   0.72875     0.71597381  0.72448305]
 [ 0.42398472  0.66818182  0.69041667  0.66279813  0.66156695  0.26184011
   0.62277778  0.65458333  0.60368043  0.60692328]
 [-0.02303622  0.53333333  0.66666667  0.41350756  0.51900385  0.01896373
   0.47678571  0.47541667  0.4686879   0.46835237]
 [ 0.26387157  0.63035714  0.63        0.59944026  0.62676336  0.11977109
   0.57348485  0.6125      0.5073562   0.57296371]
 [ 0.03097366  0.52039683  0.52125     0.52064668  0.5115785   0.22516627
   0.61174242  0.71541667  0.53462834  0.5967628 ]
 [ 0.1360188   0.59424603  0.60041667  0.52617916  0.58807258  0.43970366
   0.73402778  0.73541667  0.70818596  0.72908739]
 [ 0.26344332  0.6218254   0.62125     0.61182451  0.61236839  0.42859164
   0.7031746   0.7025      0.70603139  0.69339058]
 [ 0.34094974  0.68253968  0.68291667  0.64136682  0.6696097   0.3699288
   0.69037698  0.69083333  0.66738845  0.68582849]
 [ 0.33351952  0.6525      0.68541667  0.64383515  0.63607837  0.3888386
   0.67946429  0.68375     0.66103025  0.67167269]
 [ 0.16578895  0.61055556  0.62458333  0.61043293  0.59954316  0.47623649
   0.73380952  0.7425      0.69864398  0.72853771]
 [ 0.17131771  0.57222222  0.6125      0.54363609  0.56967261  0.18615742
   0.59275794  0.6         0.55825218  0.57620055]
 [ 0.54632995  0.75833333  0.76791667  0.72979694  0.75465146  0.57030922
   0.77878788  0.79333333  0.7358541   0.77331024]]
DT mean:
[0.30293307 0.65782991 0.68119444 0.61953809 0.65018668 0.33613036
 0.66529167 0.68247222 0.64303812 0.6572837 ]
---------------------------
---------------------------
RF performance:
[[ 0.49550285  0.75873016  0.76166667  0.7213042   0.75570208  0.21807402
   0.64393939  0.75708333  0.59435441  0.63823547]
 [ 0.49428189  0.72986111  0.73375     0.77256311  0.72818673  0.51406322
   0.73888889  0.74666667  0.76387878  0.73010821]
 [ 0.48687698  0.71230159  0.72375     0.71629718  0.70976684  0.30128608
   0.68392857  0.68458333  0.7283205   0.6798841 ]
 [ 0.38220181  0.71021825  0.71541667  0.71231201  0.70513962  0.16371157
   0.54727273  0.63625     0.56065439  0.54141711]
 [ 0.45362536  0.69293651  0.70958333  0.70815485  0.69033056  0.47338232
   0.74553571  0.74208333  0.67536663  0.74128618]
 [ 0.42962026  0.73660714  0.73625     0.7255116   0.73262389  0.60941137
   0.74940476  0.74875     0.7345849   0.74650677]
 [ 0.25168098  0.67388889  0.70166667  0.58977856  0.67333865  0.26201509
   0.64642857  0.64541667  0.60764302  0.6383962 ]
 [ 0.77393972  0.88386364  0.90333333  0.8752228   0.8860578   0.44686124
   0.74642857  0.75416667  0.7659339   0.74117795]
 [ 0.33652486  0.61977273  0.67041667  0.59377907  0.60367605  0.22482854
   0.60704545  0.66625     0.58859852  0.60164424]
 [ 0.32894744  0.68660714  0.68458333  0.67096823  0.6811788   0.2315665
   0.61765873  0.62541667  0.55644411  0.61178691]
 [-0.00484239  0.43666667  0.4525      0.47807015  0.42798701  0.43469132
   0.71920635  0.72875     0.6871647   0.71614991]
 [ 0.60873596  0.775       0.79958333  0.7576491   0.77905705  0.48367902
   0.64880952  0.65958333  0.73517596  0.63452955]
 [ 0.30261583  0.6828373   0.69166667  0.6076382   0.68201295  0.2470112
   0.66180556  0.67041667  0.55532482  0.65663667]
 [ 0.10115763  0.51333333  0.56083333  0.49756964  0.50589569  0.36185191
   0.59930556  0.59916667  0.68174432  0.59003047]
 [ 0.36015243  0.63227273  0.69583333  0.59455371  0.62146332  0.16461516
   0.61388889  0.65666667  0.57046041  0.60846551]
 [ 0.28927165  0.65714286  0.69125     0.58570302  0.64425367  0.50474033
   0.72863636  0.78208333  0.74404303  0.73064771]
 [ 0.61836861  0.81484127  0.82416667  0.80303321  0.81337852  0.35259481
   0.64531746  0.66666667  0.68553679  0.63691397]
 [ 0.22454843  0.5992674   0.83291667  0.4314064   0.58872527  0.41000963
   0.71706349  0.73        0.68565193  0.71512749]
 [ 0.43678216  0.745       0.79375     0.70734079  0.74487755  0.60458948
   0.76488095  0.76708333  0.73615814  0.76248025]
 [ 0.31190058  0.68590909  0.72791667  0.66824632  0.68383318  0.22276716
   0.66888889  0.69125     0.63043305  0.65441522]
 [-0.0491453   0.475       0.6725      0.24479788  0.45366605 -0.0475535
   0.51517857  0.51541667  0.42647703  0.50842457]
 [ 0.22795425  0.60178571  0.60041667  0.63984703  0.59438384  0.13098056
   0.6430303   0.69        0.57284665  0.63104911]
 [ 0.1785608   0.59603175  0.60666667  0.555468    0.59297807  0.23930857
   0.60189394  0.74916667  0.59272177  0.59744722]
 [ 0.30699619  0.67440476  0.67833333  0.69454519  0.67183144  0.35219595
   0.73670635  0.73583333  0.67253557  0.72984637]
 [ 0.45232097  0.67559524  0.6825      0.68719268  0.67087789  0.58377975
   0.78819444  0.78833333  0.78177364  0.77971681]
 [ 0.17656447  0.6296627   0.63166667  0.60454488  0.62228348  0.40248383
   0.74990079  0.76125     0.69771555  0.74861367]
 [ 0.49309261  0.73909091  0.78708333  0.71664005  0.73795423  0.45701643
   0.75982143  0.75958333  0.78495526  0.75575947]
 [ 0.17668082  0.61444444  0.64        0.48124953  0.60938775  0.56300655
   0.73087302  0.75416667  0.7205523   0.71993725]
 [ 0.22166018  0.64222222  0.6775      0.53019084  0.64187393  0.13502267
   0.63710317  0.645       0.57852631  0.63295073]
 [ 0.6804033   0.76055556  0.77416667  0.80911708  0.75944338  0.53265098
   0.77378788  0.79333333  0.78783109  0.77127263]]
RF mean:
[0.35156604 0.6718617  0.70538889 0.63935651 0.66707218 0.35268806
 0.68102748 0.70501389 0.66344692 0.67502859]
---------------------------
---------------------------
SVM performance:
[[ 0.09518294  0.54444444  0.58083333  0.24243448  0.44427662  0.
   0.5         0.755       0.          0.43009768]
 [ 0.33521945  0.66468254  0.67708333  0.63312037  0.65587161  0.0375
   0.51666667  0.62583333  0.05773503  0.40821678]
 [ 0.45077484  0.70952381  0.75416667  0.64089678  0.70269465  0.38103061
   0.69196429  0.69083333  0.67822123  0.68498638]
 [ 0.30678374  0.64920635  0.67083333  0.5833084   0.62878334  0.
   0.5         0.69708333  0.          0.41062678]
 [ 0.42444035  0.69746032  0.75        0.64581312  0.69979422  0.44577059
   0.72321429  0.72333333  0.70759192  0.71632962]
 [ 0.30328905  0.65178571  0.65125     0.63477829  0.64378888  0.4891729
   0.74553571  0.74791667  0.72872461  0.73839601]
 [ 0.          0.5         0.6125      0.          0.37980769  0.24055626
   0.62053571  0.62125     0.57591783  0.59935606]
 [ 0.73165095  0.84886364  0.89041667  0.83442472  0.8638274   0.28780954
   0.63309524  0.69        0.52126567  0.61336094]
 [ 0.          0.5         0.68375     0.          0.4060114   0.
   0.5         0.69708333  0.          0.41062678]
 [ 0.28526999  0.64285714  0.64291667  0.63322302  0.63850331  0.08396984
   0.5390873   0.57291667  0.22924997  0.44275231]
 [ 0.          0.5         0.5875      0.          0.36996154 -0.0122807
   0.49444444  0.58125     0.          0.36729487]
 [-0.01290323  0.49444444  0.60583333  0.          0.3770903  -0.01290323
   0.49444444  0.58708333  0.          0.36970569]
 [ 0.20566264  0.5952381   0.63958333  0.42661775  0.54196932  0.
   0.5         0.56125     0.          0.35934783]
 [ 0.          0.5         0.64583333  0.          0.39230769  0.33924011
   0.66775794  0.67583333  0.62604868  0.65245491]
 [ 0.          0.5         0.65833333  0.          0.3968661   0.
   0.5         0.6325      0.          0.38730769]
 [ 0.          0.5         0.59375     0.          0.37242308  0.
   0.5         0.67708333  0.          0.4037037 ]
 [ 0.          0.5         0.5875      0.          0.36996154  0.
   0.5         0.59375     0.          0.37242308]
 [ 0.          0.5         0.85208333  0.          0.45995895  0.
   0.5         0.6         0.          0.37488462]
 [ 0.          0.5         0.69041667  0.          0.40831909  0.03520249
   0.51676587  0.55416667  0.13014857  0.39876103]
 [ 0.          0.5         0.65833333  0.          0.3968661   0.
   0.5         0.62583333  0.          0.38480769]
 [ 0.          0.5         0.775       0.          0.43650794 -0.0686465
   0.46607143  0.45666667  0.08657539  0.33580777]
 [ 0.34581396  0.67410714  0.67        0.62269943  0.64732089  0.
   0.5         0.65208333  0.          0.39458689]
 [ 0.          0.5         0.5875      0.          0.36996154  0.
   0.5         0.74166667  0.          0.42582418]
 [ 0.          0.5         0.54166667  0.          0.35124638  0.26994411
   0.62886905  0.65791667  0.51117956  0.59451939]
 [ 0.          0.5         0.55458333  0.          0.35663043  0.31622237
   0.65605159  0.66375     0.61912888  0.64346682]
 [ 0.          0.5         0.53541667  0.          0.34857971  0.35612227
   0.67242063  0.69666667  0.64010339  0.66903748]
 [ 0.08399861  0.5325      0.70958333  0.13944272  0.46647863  0.5061108
   0.75178571  0.75416667  0.73561539  0.74665255]
 [ 0.          0.5         0.63916667  0.          0.38980769  0.03578947
   0.51547619  0.6125      0.07862128  0.40470879]
 [ 0.          0.5         0.6325      0.          0.38730769  0.02134434
   0.50992063  0.57458333  0.07628647  0.38750988]
 [ 0.15010546  0.56444444  0.65708333  0.3174992   0.50863166 -0.012
   0.495       0.64583333  0.          0.39212536]]
SVM mean:
[0.12350963 0.55898527 0.65784722 0.21180861 0.48038518 0.12466518
 0.56130357 0.64552778 0.2334138  0.48398932]
---------------------------
---------------------------
GBM performance:
[[ 0.44051657  0.6889881   0.70291667  0.67012585  0.68043303  0.23619918
   0.59166667  0.80125     0.29915638  0.57380464]
 [ 0.35132934  0.67380952  0.68333333  0.64511859  0.66478239  0.48045811
   0.71833333  0.77333333  0.66916894  0.70776783]
 [ 0.54411357  0.73650794  0.77291667  0.68598616  0.73127809  0.41582171
   0.70714286  0.70958333  0.69552554  0.70318813]
 [ 0.46518918  0.73611111  0.74125     0.72419906  0.73093025 -0.01162791
   0.50795455  0.6975      0.05        0.43003989]
 [ 0.52167937  0.73404762  0.77458333  0.69722956  0.7334141   0.46058281
   0.73660714  0.73666667  0.7208008   0.72979567]
 [ 0.51714395  0.75803571  0.76041667  0.73488504  0.75327903  0.53695649
   0.76507937  0.77458333  0.75575053  0.7618929 ]
 [ 0.23178707  0.605       0.65833333  0.51479853  0.59196727  0.27900036
   0.64017857  0.63916667  0.62594617  0.63171236]
 [ 0.7170342   0.86931818  0.88375     0.85634335  0.86564717  0.56138042
   0.77277778  0.79375     0.75654838  0.77608425]
 [ 0.19998422  0.58590909  0.72166667  0.34110247  0.55337839 -0.05216726
   0.48272727  0.665       0.08994806  0.41494587]
 [ 0.27452703  0.63035714  0.63125     0.62442094  0.62181827  0.3761458
   0.69632937  0.70916667  0.66627108  0.69385908]
 [-0.00703084  0.50380952  0.54166667  0.35824091  0.47162281  0.44602803
   0.72436508  0.74958333  0.69704966  0.72629188]
 [ 0.42844889  0.71611111  0.7625      0.66341781  0.72033293  0.53375195
   0.76912698  0.775       0.75888325  0.76386101]
 [ 0.26614921  0.62797619  0.65041667  0.56358825  0.60689488  0.15434776
   0.57539683  0.605       0.50246435  0.55240391]
 [ 0.05181456  0.51333333  0.63291667  0.17871561  0.4593999   0.36955036
   0.67172619  0.67666667  0.66209754  0.66731626]
 [ 0.00691557  0.50878788  0.645       0.13638     0.43627371  0.04348963
   0.52222222  0.62083333  0.26366503  0.47725431]
 [ 0.07859272  0.5368254   0.60583333  0.31836303  0.48361961  0.49240029
   0.72636364  0.80541667  0.67088483  0.73476017]
 [ 0.6307685   0.80626984  0.82        0.7759859   0.80424664  0.16624851
   0.58293651  0.63875     0.47316127  0.56038965]
 [ 0.09584614  0.55512821  0.85208333  0.15154691  0.51916311  0.38211473
   0.6815873   0.72166667  0.64556821  0.67793471]
 [ 0.38334561  0.67318182  0.76875     0.60885542  0.67962328  0.48227686
   0.74007937  0.74625     0.7213464   0.73464514]
 [ 0.29549764  0.63060606  0.70916667  0.57087582  0.63282201  0.29428952
   0.63166667  0.71041667  0.51691498  0.6215314 ]
 [-0.01111111  0.49583333  0.76875     0.          0.43439153 -0.01869483
   0.49107143  0.49        0.45874852  0.48075745]
 [ 0.19440036  0.59017857  0.58416667  0.5336214   0.56787296  0.04835267
   0.54757576  0.63791667  0.34912442  0.51728576]
 [ 0.16208757  0.58079365  0.63291667  0.46806163  0.55933167  0.1518408
   0.55416667  0.76166667  0.26635422  0.52391697]
 [ 0.13027499  0.57132937  0.58333333  0.52471773  0.56025226  0.49599466
   0.75059524  0.76041667  0.71514749  0.74872398]
 [ 0.28558909  0.6390873   0.65833333  0.59716771  0.62970877  0.4798176
   0.7328373   0.73708333  0.70826109  0.72270287]
 [ 0.26537211  0.62797619  0.64541667  0.57615856  0.60823784  0.56459873
   0.76914683  0.7875      0.73907439  0.7713384 ]
 [ 0.35237604  0.64431818  0.76125     0.4990885   0.63995759  0.40797149
   0.70446429  0.70375     0.6906803   0.69869111]
 [ 0.11683172  0.55166667  0.6525      0.31135019  0.50935272  0.45595827
   0.72722222  0.76208333  0.64706707  0.71670054]
 [ 0.25896185  0.59888889  0.6775      0.5240627   0.58922047  0.1121886
   0.55625     0.5875      0.40816678  0.51967231]
 [ 0.42492178  0.70888889  0.74791667  0.6653446   0.71050741  0.27830785
   0.62712121  0.71        0.51897125  0.61547305]]
GBM mean:
[0.2891119  0.63663583 0.70102778 0.51732507 0.61832534 0.32078611
 0.65682395 0.70958333 0.55809157 0.64182472]
---------------------------
---------------------------
BDDAE performance:
[[ 0.00632021  0.50315126  0.50967742  0.49479283  0.50111333  0.01763999
   0.5076087   0.72903226  0.11576378  0.45587433]
 [ 0.41159313  0.70567227  0.70967742  0.69704921  0.70275617  0.45966674
   0.72127193  0.75806452  0.67706632  0.71687857]
 [ 0.00596526  0.50106838  0.53225806  0.44480528  0.48653021  0.17477574
   0.58666667  0.59032258  0.56296441  0.57728495]
 [-0.12547674  0.4394958   0.4516129   0.40297175  0.42899548  0.11715511
   0.55530303  0.69032258  0.35568544  0.53027756]
 [ 0.366519    0.67960526  0.70322581  0.65840654  0.67695507  0.41650163
   0.70916667  0.70645161  0.69500141  0.70148477]
 [ 0.48056618  0.73979167  0.74193548  0.71587765  0.72978586 -0.04907527
   0.47647059  0.48387097  0.42710448  0.45616958]
 [ 0.07335741  0.53289474  0.59677419  0.44311934  0.51630744  0.17229676
   0.586875    0.58387097  0.5678379   0.57607577]
 [ 0.44968284  0.70690476  0.78387097  0.66315338  0.71819617 -0.01187007
   0.49539474  0.54516129  0.41645922  0.47921241]
 [ 0.29584507  0.63214286  0.73225806  0.52460963  0.62898252  0.37912573
   0.65555556  0.8         0.53747836  0.66392873]
 [ 0.00450234  0.5025      0.50322581  0.49497974  0.49903071  0.2927749
   0.64432773  0.65483871  0.63219189  0.64309427]
 [ 0.09819948  0.54594017  0.58064516  0.47542357  0.52725457  0.16986293
   0.57884615  0.62258065  0.49691761  0.5587501 ]
 [ 0.27240656  0.62675439  0.67419355  0.58441945  0.62664415  0.25591517
   0.62948718  0.63548387  0.62174405  0.62507497]
 [-0.14762081  0.42710084  0.43870968  0.38550916  0.41335142  0.27589652
   0.63739496  0.64516129  0.62093277  0.63216802]
 [ 0.12201422  0.56022727  0.62258065  0.48403092  0.55239783  0.3687768
   0.68520833  0.68387097  0.67711025  0.68086072]
 [ 0.02323474  0.51045455  0.60322581  0.35901637  0.48404009  0.20789594
   0.60181818  0.64193548  0.57280898  0.59832892]
 [ 0.13358888  0.56474359  0.6         0.48800797  0.54315368  0.21376186
   0.5852381   0.72903226  0.41283894  0.56283144]
 [ 0.62149658  0.82371795  0.80645161  0.80937661  0.80409302  0.18898939
   0.58675214  0.63548387  0.47684011  0.55572321]
 [ 0.18407374  0.57538462  0.81612903  0.37223004  0.58138365 -0.04357509
   0.47872807  0.55483871  0.27829051  0.43002504]
 [ 0.25984564  0.62404762  0.7         0.57162738  0.62233108  0.21747104
   0.60819328  0.61935484  0.5857931   0.60177281]
 [ 0.10371737  0.54613636  0.60967742  0.48906023  0.54075572  0.04713685
   0.52127193  0.60322581  0.31763033  0.47350444]
 [ 0.0300088   0.51279762  0.75483871  0.16051576  0.47848169  0.13026026
   0.56541667  0.56451613  0.55833739  0.5613713 ]
 [-0.04217887  0.47895833  0.47741935  0.4693204   0.47326879  0.02920403
   0.51204545  0.62903226  0.2530971   0.46000116]
 [ 0.0519897   0.52606838  0.54516129  0.49051719  0.51567035  0.45171388
   0.70271739  0.81290323  0.6601684   0.72221345]
 [ 0.11352488  0.55588235  0.56129032  0.54612555  0.55305365  0.30157052
   0.65042017  0.65806452  0.63721755  0.64670825]
 [ 0.01347664  0.50588235  0.51612903  0.48394676  0.49923663  0.02822258
   0.51375     0.51612903  0.50148392  0.50908429]
 [ 0.27775461  0.63571429  0.6516129   0.60148162  0.62652452  0.20467387
   0.59978992  0.61290323  0.57637028  0.59506225]
 [ 0.50561463  0.73452381  0.8         0.7070155   0.74893011  0.5768792
   0.78645833  0.79032258  0.77436227  0.78432931]
 [ 0.05920444  0.52704545  0.59032258  0.47235395  0.52233485  0.42130279
   0.69890351  0.74193548  0.66410979  0.70254836]
 [ 0.05427206  0.52386364  0.59677419  0.44782812  0.51491287  0.35703034
   0.67628205  0.69354839  0.66055611  0.67474762]
 [ 0.35550897  0.66798246  0.70967742  0.63852972  0.67205335  0.00994506
   0.50431818  0.63225806  0.1238172   0.42413447]]
BDDAE mean:
[0.16863357 0.58054843 0.63064516 0.51920339 0.57295083 0.21273084
 0.60205602 0.65215054 0.515266   0.5866507 ]
---------------------------
---------------------------
DUMMY performance:
[[0.         0.5        0.54166667 0.         0.35124638 0.
  0.5        0.755      0.         0.43009768]
 [0.         0.5        0.54166667 0.         0.35124638 0.
  0.5        0.6125     0.         0.37980769]
 [0.         0.5        0.57458333 0.         0.36478261 0.
  0.5        0.51       0.         0.33761528]
 [0.         0.5        0.54166667 0.         0.35124638 0.
  0.5        0.69708333 0.         0.41062678]
 [0.         0.5        0.60625    0.         0.37734615 0.
  0.5        0.51       0.         0.33761528]
 [0.         0.5        0.51       0.         0.33761528 0.
  0.5        0.54166667 0.         0.35124638]
 [0.         0.5        0.6125     0.         0.37980769 0.
  0.5        0.51       0.         0.33761528]
 [0.         0.5        0.68375    0.         0.4060114  0.
  0.5        0.6        0.         0.37488462]
 [0.         0.5        0.68375    0.         0.4060114  0.
  0.5        0.69708333 0.         0.41062678]
 [0.         0.5        0.48333333 0.         0.32575758 0.
  0.5        0.54166667 0.         0.35124638]
 [0.         0.5        0.5875     0.         0.36996154 0.
  0.5        0.5875     0.         0.36996154]
 [0.         0.5        0.6125     0.         0.37980769 0.
  0.5        0.59375    0.         0.37242308]
 [0.         0.5        0.56125    0.         0.35934783 0.
  0.5        0.56125    0.         0.35934783]
 [0.         0.5        0.64583333 0.         0.39230769 0.
  0.5        0.52916667 0.         0.34591304]
 [0.         0.5        0.65833333 0.         0.3968661  0.
  0.5        0.6325     0.         0.38730769]
 [0.         0.5        0.59375    0.         0.37242308 0.
  0.5        0.67708333 0.         0.4037037 ]
 [0.         0.5        0.5875     0.         0.36996154 0.
  0.5        0.59375    0.         0.37242308]
 [0.         0.5        0.85208333 0.         0.45995895 0.
  0.5        0.6        0.         0.37488462]
 [0.         0.5        0.69041667 0.         0.40831909 0.
  0.5        0.54166667 0.         0.35124638]
 [0.         0.5        0.65833333 0.         0.3968661  0.
  0.5        0.62583333 0.         0.38480769]
 [0.         0.5        0.775      0.         0.43650794 0.
  0.5        0.48333333 0.         0.32575758]
 [0.         0.5        0.50333333 0.         0.33465086 0.
  0.5        0.65208333 0.         0.39458689]
 [0.         0.5        0.5875     0.         0.36996154 0.
  0.5        0.74166667 0.         0.42582418]
 [0.         0.5        0.54166667 0.         0.35124638 0.
  0.5        0.54791667 0.         0.35391304]
 [0.         0.5        0.55458333 0.         0.35663043 0.
  0.5        0.52291667 0.         0.34324638]
 [0.         0.5        0.53541667 0.         0.34857971 0.
  0.5        0.56125    0.         0.35934783]
 [0.         0.5        0.69041667 0.         0.40831909 0.
  0.5        0.51       0.         0.33761528]
 [0.         0.5        0.63916667 0.         0.38980769 0.
  0.5        0.6        0.         0.37488462]
 [0.         0.5        0.6325     0.         0.38730769 0.
  0.5        0.56791667 0.         0.36206522]
 [0.         0.5        0.6125     0.         0.37980769 0.
  0.5        0.65208333 0.         0.39458689]]
DUMMY mean:
[0.         0.5        0.60995833 0.         0.37732366 0.
 0.5        0.59188889 0.         0.37050762]
---------------------------
Current folder: C:\Users\Javier\Dropbox\c_sldl_1_2_5
-------------------------------------
----- RESULTS ------
-------------------------------------
Window size (sec):  8.0
step (sec):  8.0
overlap:  True
perc. of overlap:  0.0
Number of windows / instances:  155
---------------------------
ALG Means: 
-rows: alg : KNN = 0; DT = 1; RF = 2; SVM = 3; GBM = 4; BDDAE = 5; DUMMY = 5
columns:
'val_cohen','val_uar', 'val_acc', 'val_gm',  'val_f1',  'aro_cohen','aro_uar', 'aro_acc', 'aro_gm',  'aro_f1'
-------------------------------------------------------------
  v_c   v_u   v_a   v_g   v_f1  a_c   a_u   a_a   a_g   a_f1
[[0.345 0.669 0.712 0.616 0.664 0.345 0.67  0.701 0.626 0.664]
 [0.303 0.658 0.681 0.62  0.65  0.336 0.665 0.682 0.643 0.657]
 [0.352 0.672 0.705 0.639 0.667 0.353 0.681 0.705 0.663 0.675]
 [0.124 0.559 0.658 0.212 0.48  0.125 0.561 0.646 0.233 0.484]
 [0.289 0.637 0.701 0.517 0.618 0.321 0.657 0.71  0.558 0.642]
 [0.169 0.581 0.631 0.519 0.573 0.213 0.602 0.652 0.515 0.587]
 [0.    0.5   0.61  0.    0.377 0.    0.5   0.592 0.    0.371]]
Elapsed time: 401.7570411960284 minutes
Elapsed time: 6.695950686600473 hours
